emg1,emg2,emg3,emg4,emg5,emg6,emg7,emg8
73,2,-111,-27,26,102,6,2
17,38,70,-14,-4,-23,31,3
6,-2,39,1,-5,-20,9,1
-31,-2,105,34,1,-39,-11,8
11,-3,-36,7,-2,23,-26,-35
43,-13,-37,-14,0,33,-1,13
38,23,11,1,7,25,8,7
21,-1,-13,-4,8,10,4,1
-56,-2,50,3,-47,-124,2,1
13,-2,-21,28,95,106,60,16
-21,-1,-18,-6,14,-100,-42,-9
4,-3,2,-7,-19,-59,7,13
-25,5,39,18,-44,-128,-21,-13
-16,-53,-90,-29,41,40,-27,-30
-4,56,102,-3,0,32,55,91
5,-9,-7,-8,10,2,7,-44
-24,8,88,18,-2,-42,-22,11
-11,8,122,51,-28,-119,-33,-18
-95,-89,-128,-60,8,118,-27,-24
100,95,80,-35,-28,-6,24,-12
-5,-4,55,3,9,34,36,25
-23,-3,27,18,-7,5,-26,-7
-1,19,32,4,40,110,13,33
-11,-6,-15,-14,-23,-81,19,-9
2,3,-6,2,-25,8,5,-3
1,4,-11,7,-10,-109,-43,1
-6,-11,-33,7,66,47,11,-33
9,-2,-21,-13,-45,-29,24,46
-2,6,0,7,34,20,5,-13
0,2,76,7,-25,-54,-12,-7
-37,-15,-88,3,-15,-40,-10,-22
71,37,2,-8,34,78,5,4
-23,5,39,-8,-22,-27,7,37
-3,-14,-5,6,11,65,14,0
4,-15,1,7,-18,-66,-19,-1
-12,-4,-10,-9,-20,-32,-18,-19
13,4,-14,11,50,98,35,11
7,9,-5,-5,-2,-9,-7,-10
-6,0,16,3,-24,-32,-5,16
-28,-21,-26,-5,-23,-96,-15,-27
16,13,13,8,31,96,23,-17
-14,-9,-28,-8,6,-3,-9,-3
18,-1,-10,-14,-12,3,62,0
-11,3,28,11,14,2,-22,-5
10,1,19,5,-21,-97,-18,7
-1,-7,-12,9,-8,-44,-11,-19
-12,-19,-84,-27,32,61,6,5
16,23,24,0,6,22,19,18
-7,-3,10,-4,-11,-51,5,-8
-34,-17,3,-6,-13,-15,1,-6
28,18,47,19,-9,-38,-18,3
-43,-27,-40,-18,12,75,-23,-17
33,2,-32,0,-9,-21,6,-18
8,7,5,-2,9,35,27,34
12,8,51,20,1,-16,-7,-7
-3,-7,-33,-5,-7,-62,-17,5
-17,-11,-55,-19,25,60,-8,-31
1,14,28,-1,3,43,37,33
12,-5,-9,-9,-31,-93,-14,7
2,9,38,15,-5,-10,6,2
-13,-12,31,-10,-63,-128,-56,24
9,4,-46,31,103,126,55,-32
-5,12,7,-35,-44,-88,3,21
29,9,16,8,-2,-49,4,-1
-51,-4,63,10,-5,-38,4,-14
1,-17,-30,-1,-18,-14,-23,3
2,10,10,11,-1,20,-3,8
27,-12,-100,-25,13,74,16,-11
-52,-11,-5,-25,-21,-15,-15,-18
21,11,28,1,-12,-18,2,-3
-8,16,93,27,-6,2,-13,-17
-20,-26,-60,1,25,11,-4,9
44,26,18,-5,4,12,-17,-25
-73,-13,-1,-12,-4,-54,5,3
-11,-4,13,-1,-17,6,-16,-25
10,1,23,21,30,-27,-1,8
5,-10,-29,-2,-30,-91,-14,24
-7,0,8,-4,31,86,2,-32
8,-4,-33,-12,-39,-18,-20,-10
-15,10,13,5,4,1,31,6
34,11,6,8,20,13,-10,12
-2,-28,-71,-20,-25,-44,-5,19
16,-3,30,4,10,9,1,6
27,9,16,-13,-10,34,6,5
7,-9,-74,-8,5,8,6,0
62,26,35,-6,-20,-22,6,1
-58,-10,-14,4,27,41,11,8
-12,-4,52,13,-23,-51,-23,2
16,12,76,22,-7,4,-2,11
3,-31,-108,-31,43,23,-17,-5
-14,14,22,-14,-19,-59,26,18
1,6,37,7,-7,-20,14,-4
-14,-10,-10,-3,-23,-48,-20,-4
10,12,22,13,-21,-38,4,8
6,-2,23,2,1,-4,-42,-17
-20,0,-7,22,40,-12,27,2
22,11,-41,-12,-25,-55,32,0
-39,6,33,2,-13,-31,-1,4
27,3,1,-9,-20,-58,-13,5
-11,-18,31,13,-9,17,-23,-12
-10,-14,-64,0,38,70,8,2
3,14,-5,-7,-19,-14,-1,7
4,4,2,-3,6,30,20,-2
2,11,27,3,4,30,-4,0
-11,-6,23,17,20,36,0,-3
6,4,67,11,-31,-45,-11,-3
-13,-31,-128,-23,-17,-31,-24,-2
8,20,40,9,75,97,45,-3
-5,-2,2,-13,-33,-128,-26,4
12,3,33,12,3,-31,1,5
23,14,98,18,-25,-93,-5,-8
-37,-45,-128,-12,17,38,-50,-22
-26,29,48,1,40,74,66,36
-6,-6,0,-4,-12,-39,13,-2
20,10,14,6,15,-2,-8,-4
2,1,24,-10,-60,-92,-21,1
-15,-16,-7,14,18,38,-9,-8
-4,8,34,2,5,30,-6,-1
-6,-5,-91,-5,7,17,26,3
-3,10,25,-9,-14,8,-1,9
9,1,-9,-1,1,8,-3,-31
9,1,11,3,-9,-15,-1,4
-4,-7,8,5,17,29,7,-3
7,4,29,-2,-60,-128,-9,3
-20,-25,-79,5,81,93,16,-39
47,14,-17,-19,-43,-89,9,26
-4,-2,-1,-6,-5,-48,7,-7
21,6,9,4,-13,-53,-8,4
8,-4,42,-5,-58,-128,-23,5
-3,-5,-4,18,31,121,-5,-14
-3,-4,-34,-3,63,68,20,28
20,18,14,-10,-29,-32,-5,-28
18,-3,8,2,-7,-7,5,-3
-33,-8,-25,-2,-7,-13,-6,2
40,12,80,19,-7,-27,-6,5
-63,-30,-71,-9,15,92,-4,-19
42,21,-10,-14,-3,1,10,16
-16,5,4,-3,0,-15,0,-10
-13,-3,18,2,-3,40,13,-4
12,-10,9,6,-4,-88,-29,9
3,1,9,11,-2,64,3,-3
-9,-9,-33,-9,33,15,-3,18
16,8,-6,-6,-16,-64,8,-6
-5,5,3,3,21,-2,3,-3
-20,-9,-1,-9,-42,-59,-11,0
2,-4,6,5,0,-35,-19,-3
-5,0,9,9,2,23,-11,-6
14,-27,-101,-16,-2,41,5,5
-13,22,28,-9,2,5,18,24
-13,-4,-4,2,4,10,0,-13
0,-2,11,-2,-3,2,-4,0
3,6,76,22,1,-10,9,6
20,-16,-81,-8,-11,-14,-17,9
-1,21,6,-2,23,45,16,-6
-25,-5,-8,-1,15,49,9,-21
-5,5,20,0,9,22,-6,18
5,-8,10,4,-6,-35,-10,-7
29,1,4,1,-23,-60,-3,11
-31,-16,-32,-3,1,-10,5,-11
2,9,33,5,1,16,9,18
-19,-2,42,7,-10,-47,-12,-10
6,-22,-111,-3,18,56,-10,-3
6,15,6,-20,-8,26,9,-14
-13,7,17,-6,-13,-42,8,6
6,5,38,3,-11,-35,-9,4
3,2,41,6,-12,-54,8,2
1,-17,-21,14,12,24,-16,-5
9,2,-41,-15,-7,-5,0,0
23,21,29,3,8,18,14,4
29,2,-7,-1,-5,0,-6,-5
-20,-8,-12,-8,-1,2,-3,16
9,4,13,4,-5,-14,0,-9
-20,-1,82,11,-10,-39,-21,7
-6,-22,-90,-3,6,31,4,-15
5,8,9,-27,-27,-84,-5,15
-6,9,31,8,-1,-81,14,-18
-8,-12,-18,-1,12,6,19,10
-3,11,55,4,-32,-41,-26,-18
1,-4,-8,12,1,-6,-5,5
-5,-10,-22,-3,6,37,-8,-13
-6,3,-32,-2,18,66,-6,5
5,14,36,3,1,-1,3,10
7,-5,-27,-3,-3,12,3,10
4,-1,3,0,0,9,4,2
9,2,51,12,-3,-28,-3,1
-13,-8,-56,-3,-5,11,-9,-8
-33,-13,-40,-22,-1,7,3,11
-1,22,22,-5,-5,17,22,13
-1,-9,-21,-5,3,-1,-4,-5
-7,2,51,10,2,-15,-8,18
6,2,22,4,-38,-126,-25,-5
-5,-14,-18,9,11,75,0,13
2,-9,-65,-4,23,-34,7,7
-8,7,26,-11,-33,-100,8,-27
9,0,-6,8,13,10,-5,8
1,-2,6,-8,-27,-59,-10,-4
-5,7,-3,4,10,37,-2,-6
-12,-7,5,0,10,24,-3,-5
23,12,20,5,-1,13,9,-3
-14,-15,-27,-11,6,31,-5,-14
-27,-23,-69,-17,-22,-11,-2,-2
49,20,20,-4,9,25,21,20
-6,5,17,6,0,-18,2,-6
-5,10,57,10,-13,-44,-18,-8
-29,-15,12,20,17,50,10,0
5,-18,-93,-32,2,-70,-41,-27
9,21,34,2,-6,-37,26,-1
8,-1,-4,6,12,-8,20,-1
8,1,12,-12,-45,-53,-8,-5
-27,-4,34,20,19,32,7,3
-1,-5,-25,4,13,33,-13,7
-14,-3,-24,-10,-8,-15,-2,-14
11,2,-4,1,3,-1,0,7
-10,-2,8,-4,-10,-5,3,4
10,1,-14,-2,13,50,9,4
22,10,5,4,-5,20,5,25
-24,-4,15,2,15,2,-6,-17
13,-12,42,6,-13,-53,-6,-2
5,-4,-47,-5,-19,-18,-1,3
7,7,-46,-12,40,101,9,8
14,16,32,-6,-22,-42,12,-11
-13,-5,8,-1,-1,-3,9,5
-11,-13,33,14,-2,-15,-9,-10
-8,-2,65,15,-14,-48,-6,0
30,7,-87,0,35,35,3,-14
-21,0,1,-11,-3,30,7,16
21,7,12,-6,-5,-3,9,-3
11,-4,-14,-3,-5,-39,0,3
-19,-2,30,-1,-16,-22,-4,-1
9,8,6,21,29,98,18,1
-52,-8,-21,-7,-2,-15,-4,9
18,-4,1,2,1,2,-1,-9
0,-8,-1,-4,-11,-39,-5,-11
-14,7,25,-5,-17,-63,-8,10
5,-3,-17,6,40,109,12,-15
-11,2,-21,-2,-8,-53,0,11
-10,-1,60,7,-8,-37,-16,-10
16,-20,-99,-8,0,21,2,-8
-20,20,14,-29,-33,-70,-11,18
-5,-1,8,-1,-2,-10,1,-12
-5,-6,-11,1,4,38,2,8
10,3,32,3,-18,-93,-15,-3
-44,-17,4,14,13,30,3,1
14,4,-24,5,30,79,1,-1
21,-5,-16,-10,7,70,2,-4
-10,4,14,-4,-11,-5,16,13
13,0,16,-2,-20,-95,-24,-18
-8,-4,4,17,30,61,15,-11
4,-9,-57,-6,0,-8,-5,25
2,9,-7,-9,-9,3,5,7
33,9,16,-3,4,12,15,-11
-17,-3,29,0,-30,-59,-11,0
6,0,21,7,5,-7,-8,2
-11,-9,-25,1,5,19,-8,-7
22,8,19,4,6,16,-1,3
-37,-14,-35,-12,-7,-12,6,-2
-10,2,-10,-3,2,12,5,9
5,15,36,0,-7,-32,-9,-7
-2,-14,-9,3,1,13,1,5
21,5,29,10,11,-36,-7,-23
-6,-10,-76,-10,3,57,-6,7
10,15,23,3,32,79,30,-16
-14,-11,-4,-2,-26,-65,-23,5
-6,-1,9,-2,5,5,-11,-2
9,6,13,-3,-28,-60,10,7
5,1,15,13,2,-42,-1,-7
5,-3,-18,0,36,121,-11,-10
22,6,-7,-9,-21,-41,-8,10
-5,-2,18,2,-1,-10,-1,-7
10,7,29,12,8,1,-3,9
21,2,-17,-15,-24,-91,3,-8
-8,-7,-53,-10,13,101,4,6
24,7,-14,-15,-17,-80,7,12
-38,-7,24,0,-2,16,0,-34
-8,0,34,19,-9,-53,-12,-11
21,10,20,7,1,15,-30,-21
6,1,-29,-7,17,-28,-7,29
-1,15,4,2,5,24,32,5
1,-1,20,5,7,30,-1,-5
-24,-9,-13,-2,-14,-46,3,-4
10,6,45,10,7,40,-20,-27
-19,-15,-37,-13,-14,-28,-32,-2
6,2,-15,-2,-3,-6,11,30
18,4,16,7,7,16,17,10
1,10,33,6,-9,-31,-1,5
6,-12,-77,-12,22,54,15,2
14,4,16,2,5,22,16,2
-17,-5,-7,-4,-4,-7,-3,-4
12,8,30,6,2,-13,9,1
-34,-12,25,1,-26,-62,-27,-2
-4,-4,-56,0,29,45,13,-9
1,1,6,-15,-7,25,4,4
3,-3,-2,9,-6,-7,14,2
2,11,23,8,26,49,-3,10
8,0,-4,-5,-13,-20,2,1
-20,-1,36,2,-21,-102,-3,20
-11,-14,-49,-1,23,86,14,-67
-12,-22,-88,-44,-48,-104,-9,4
28,17,44,5,1,-42,7,23
-12,-7,-11,3,5,-3,-1,-4
3,8,31,5,-7,-10,-9,7
2,-8,11,12,3,6,-3,-5
-10,0,-18,-1,-1,-13,-12,-12
37,8,7,2,15,59,8,12
-4,-10,-18,-6,-2,-1,2,9
22,5,1,6,5,38,4,1
5,3,2,-8,-16,-47,-6,11
-14,6,-2,10,21,3,6,-12
-18,1,-6,-2,27,88,12,7
3,7,21,5,3,-11,-11,-16
-2,-8,0,0,-19,-17,4,-5
4,-4,-12,-2,1,-20,0,5
-3,9,30,8,5,7,-14,-7
-10,-18,-54,-6,-20,-63,-16,1
-11,-4,-39,-11,21,87,7,2
-7,6,1,-11,-11,-26,9,-9
1,-2,2,-1,-9,-36,1,1
10,11,60,3,4,-2,0,9
-18,-18,-24,23,5,6,-8,-15
8,-2,-12,-13,-9,-17,-11,-12
-52,3,-4,-6,-19,-20,2,10
32,16,17,7,27,54,14,4
-9,-11,0,-4,7,41,13,5
-2,-4,23,13,-4,-41,-10,3
-4,-2,-25,-7,-13,-23,2,-13
8,-2,-15,-11,0,21,1,23
-9,19,54,4,-4,-35,-24,-8
12,-10,-47,3,-2,2,-10,9
3,-10,-4,-14,-7,-2,23,24
-1,-3,1,4,-5,-17,-8,-12
10,3,20,2,7,12,-3,-5
-15,2,84,11,-14,-40,-17,4
3,-10,-92,-10,-3,-34,-6,-9
8,17,12,-6,11,68,12,10
8,-2,4,-4,-9,-40,13,3
-23,-11,-8,-2,0,5,3,-9
20,1,22,11,13,-1,-12,4
-37,-9,13,7,-11,-7,1,-18
32,1,2,3,2,-39,-8,-9
-11,-2,-69,-17,31,101,13,-30
21,12,20,-1,9,-8,7,14
-18,-12,-13,-6,-17,-58,-6,0
-26,-10,13,-2,-13,-54,-3,-17
14,13,20,12,7,45,8,10
0,1,-18,-15,-17,-34,-25,-17
0,7,16,1,1,-2,4,10
-23,-3,21,7,2,22,15,2
-9,-17,-58,-7,-13,-50,-19,-4
-57,-2,14,-3,2,25,9,3
37,7,29,13,-1,-29,2,10
-8,-9,-62,-17,1,53,-7,-9
18,18,24,-3,-6,-13,10,8
6,2,17,5,3,-6,9,7
-23,-8,0,1,-1,-38,-2,-6
7,10,7,3,5,84,6,-12
2,0,63,4,-29,-104,-9,3
6,-20,-73,16,60,110,-1,-12
-13,1,-5,-15,4,55,30,13
20,9,-3,-5,-8,-28,4,10
-2,-2,1,1,-5,-14,1,12
-11,4,97,12,-58,-128,-33,-14
33,-8,-56,19,84,114,28,-8
-38,7,-28,-23,-25,-52,2,19
-2,0,4,-4,-1,-25,11,-7
14,-2,16,3,-2,-20,-5,5
-11,-13,-9,2,-18,-24,-21,-4
11,2,25,-7,3,9,-5,5
20,-2,-35,16,11,19,-1,1
-41,-7,-9,-19,-14,3,3,-1
23,15,14,1,-9,1,-1,6
-1,-2,-10,2,1,-27,6,8
3,-19,-12,-17,-24,-34,-17,-39
24,8,5,15,45,117,15,8
-11,-9,-26,-17,-28,-20,-4,-5
9,3,18,6,-7,-30,-18,-6
-12,4,4,2,15,-1,9,-4
8,-4,-1,-5,-34,-68,-2,-12
15,5,13,-3,-21,-119,-24,0
-34,-14,-27,2,30,123,1,-16
12,7,8,-4,-16,-24,8,22
4,-4,-10,-2,5,-7,7,2
-12,-5,11,1,-7,-18,-1,-1
6,0,27,16,2,-22,-8,6
32,9,-58,-19,-1,23,-8,4
-72,-8,5,0,4,20,14,-1
15,2,4,8,1,3,-2,0
8,-2,11,3,1,3,1,0
-17,-3,38,7,3,10,-5,-1
15,-6,-29,5,8,-1,0,6
1,-5,-49,-26,-14,33,1,7
-9,4,14,8,38,35,-8,15
20,2,-3,-6,-19,-4,23,3
-9,0,18,5,9,-7,-5,0
23,0,16,10,-7,-22,1,0
-5,-5,-23,-5,-7,-21,-5,-2
2,-4,-4,-3,4,23,-4,1
3,15,63,12,5,3,-8,11
14,9,-40,1,6,13,5,-12
-37,-13,-22,-14,-10,-22,5,-2
-6,3,55,11,-13,-48,-15,10
-3,-22,-83,-6,4,46,7,-11
-7,4,-3,-23,10,74,7,3
51,29,26,-3,-22,-62,15,2
-37,-16,-9,5,14,-11,-10,2
22,5,37,10,-17,-17,-12,-1
-26,-18,6,8,-8,-44,-12,1
28,2,-29,-2,-7,-14,-7,-3
-6,10,17,6,38,87,23,24
18,-2,-12,-11,-22,-79,-3,-2
12,10,39,13,26,86,4,-19
-18,-8,-20,9,29,88,0,5
6,1,-6,-2,2,-28,17,-8
11,2,-1,-8,-4,-1,0,-3
-17,-2,14,2,-12,-59,-14,7
5,-7,24,7,-6,-20,-7,-13
-27,-20,-54,0,-3,-7,-14,1
4,17,-50,-29,6,63,14,0
2,10,47,2,-11,-36,20,0
-1,-7,-9,2,5,-11,-5,-3
5,-1,9,3,-3,3,-5,4
10,-5,35,7,-12,-49,-4,0
-29,-7,-26,3,7,3,-13,-14
-54,-9,-32,-12,13,32,1,10
16,0,-1,-9,-19,-34,4,7
-27,-1,16,5,13,17,5,-6
12,6,-10,6,6,28,2,2
11,-7,-5,-4,-12,-39,6,-5
-3,3,-5,-5,-5,-35,-28,-13
22,10,9,9,25,93,35,15
-12,-3,47,3,-19,-69,-32,8
21,-7,-34,4,-9,-33,5,-2
4,7,-18,-9,4,52,11,8
19,-2,11,-2,-12,-43,-13,-5
-16,-13,4,8,10,19,2,4
19,7,8,-5,-13,-18,-6,-3
40,13,21,-2,-5,-31,0,-8
2,-6,-47,-8,2,14,-3,-3
-2,1,12,-7,3,43,16,1
7,-7,5,4,-7,-25,-8,-9
-3,0,11,4,-7,-38,-1,4
1,11,36,15,1,-31,-6,-18
15,-4,-33,-3,35,52,-9,4
-7,-4,-5,-9,-18,-12,2,-5
-12,-3,-7,0,-5,18,7,-12
-8,-2,5,-10,-24,-73,-15,-1
-5,-2,0,1,-7,-2,-8,-2
2,9,16,1,11,31,0,11
-3,0,-16,-5,1,6,5,0
-18,-12,-3,-2,-1,-2,0,9
11,8,9,6,-13,-44,-8,-1
-36,-9,-27,-6,4,20,-1,0
-7,-4,-30,-13,-13,-4,0,-1
66,8,15,2,8,42,6,9
6,4,-8,-3,12,-2,9,6
2,3,30,6,-6,4,10,-4
-7,8,78,17,1,-13,-14,-1
3,-10,-88,-1,30,81,6,-9
-11,-4,1,-8,-18,-47,-2,-12
24,5,3,2,13,52,20,13
5,0,7,2,4,-3,1,-3
-7,-3,20,-7,-22,-82,-18,1
18,5,2,12,19,51,2,-3
-25,-14,-15,-8,-24,-123,-11,10
-3,-8,-56,-12,39,127,14,11
11,24,32,-1,-5,-13,7,15
-15,-14,-15,-8,-20,-53,2,-3
0,3,28,6,4,-13,-7,-5
-18,-13,7,12,1,-4,3,5
-4,-11,27,12,-16,-21,-16,-2
43,-1,-83,-33,4,-32,0,-8
-10,23,43,-2,6,67,13,5
1,-12,-16,-1,-5,-12,7,-7
-14,-1,26,0,-10,-42,-9,-8
-8,-4,19,18,2,-10,3,11
11,-2,-21,4,30,73,-11,-3
-16,-1,-4,-5,-2,-3,13,-11
9,-1,-3,-2,-23,-38,-2,-1
-11,-1,1,0,8,10,3,3
-5,-5,-17,-5,-6,-17,-3,-13
22,19,34,11,6,1,-13,24
-35,-12,-14,-2,4,9,3,-33
-12,-5,-11,-7,-7,18,8,-6
0,4,41,8,-6,-30,-13,-13
2,-13,-74,-13,-4,26,-2,2
26,17,-9,-13,2,-4,5,6
-49,-5,13,-6,-15,-33,5,15
21,0,17,9,12,-23,-1,1
-13,-7,22,10,-16,-29,-8,-13
-3,-9,-29,-6,18,64,1,7
-24,5,16,0,-16,-24,-6,-11
22,3,5,-2,-4,-22,0,13
-7,-2,-18,-5,3,-26,-4,-2
6,4,8,0,-3,-3,0,8
8,7,54,12,-9,4,-8,-10
-17,-33,-90,1,14,-20,11,0
6,32,28,-14,-14,-73,-14,-19
3,6,10,12,58,99,25,21
7,-7,-7,-13,-42,-80,-4,4
0,1,19,7,-1,4,7,-3
-8,-16,20,11,-2,-4,-4,-12
11,-9,1,3,-17,-22,-24,6
62,27,-25,-4,35,102,18,0
11,9,-5,-10,-3,5,13,13
1,-4,7,6,6,15,5,4
-22,-6,24,2,-18,-44,-9,-12
17,-2,-6,7,-3,3,-2,8
-25,11,26,-4,-17,-39,-19,-34
-4,-10,-37,0,20,62,14,29
-5,1,2,-4,-8,-49,4,-14
-10,-5,1,4,11,14,-2,-1
6,5,0,-9,-22,-40,-9,6
6,8,38,4,-8,-46,-8,-8
-25,-9,-30,8,30,108,9,5
11,3,1,-9,-17,-60,-14,-1
-7,-2,10,2,1,13,13,8
7,-5,0,6,16,29,-5,-22
-9,-2,-29,-15,-14,-15,0,1
-11,3,14,0,-3,-23,7,-2
2,-4,-2,4,8,29,-4,1
33,2,-1,-1,0,-5,-4,12
17,12,47,7,-10,-28,-3,-3
-40,-24,-71,-5,5,2,-5,-5
16,14,41,-1,-16,-52,-4,-7
-13,-18,-62,-8,14,54,19,0
4,7,14,-6,3,-27,-2,18
18,11,21,4,7,64,6,4
4,-4,-11,1,-8,-8,-6,-3
-17,4,16,-1,-16,-18,1,-4
-6,-10,18,4,-31,-123,-25,-3
0,-3,-9,24,82,90,17,-8
0,5,-16,-10,-8,-74,-11,-4
11,18,21,-3,-15,-63,14,6
-15,-8,-21,-6,-8,-11,-2,-9
1,-4,13,-3,-26,-55,-12,0
0,-2,20,8,15,48,0,-7
14,-16,-7,9,11,22,-8,2
-2,-2,-60,-17,-12,0,-2,4
41,16,-2,-9,-13,-7,8,-1
-18,-5,-13,-6,7,48,18,7
11,11,27,3,-5,-20,-8,6
-33,-15,11,6,7,26,-3,-7
-6,-7,12,4,-29,-98,-16,3
13,1,-19,10,43,91,4,-9
13,19,8,7,32,31,13,20
6,3,5,2,4,-6,14,2
-18,-1,8,-2,-5,-26,0,-4
1,-7,22,3,-27,-59,-27,9
-10,-10,-59,-10,-6,8,1,-6
-8,8,5,-6,5,23,8,-7
-4,1,0,-1,-1,-21,4,16
-12,-2,8,0,2,7,1,-1
-15,-10,-9,0,-9,-32,-10,-10
13,-9,-17,-10,-12,2,-2,7
-6,12,41,8,0,9,10,-10
-14,-30,-66,-4,2,-1,1,11
13,19,16,2,20,61,5,-4
18,20,9,0,-10,-12,13,-19
-28,-14,19,1,-2,-19,-17,2
-1,-14,-51,-13,-25,-82,-15,-6
-15,-5,19,-7,6,54,6,-10
8,1,-7,4,1,-3,9,7
3,-2,5,-3,-4,-19,-8,14
10,12,6,4,3,30,5,1
-11,-9,-5,-3,-22,-60,-6,-5
-25,0,0,4,15,68,1,-13
-5,3,-7,-1,-2,-17,-4,-8
6,6,37,9,4,9,4,5
-37,-23,-46,-12,-9,-34,-14,-5
46,29,58,13,21,75,23,19
-23,-32,-64,-13,-16,-16,-13,-14
-2,12,19,-2,12,20,-2,11
-11,1,18,-5,-20,-23,-3,-6
-9,-4,35,10,-4,-60,-14,12
25,-4,-32,-3,-27,-59,-2,1
-23,6,21,17,83,98,25,5
35,5,11,-2,-12,-43,7,17
8,-3,-31,-6,-9,-38,-14,-6
7,15,31,-4,-5,-1,10,11
1,-9,-5,2,-20,-27,-10,-15
10,10,31,7,-2,-1,-10,1
-8,-6,-2,0,-2,-35,-1,0
15,4,-14,7,35,52,6,-2
-57,-10,-57,-21,-25,-5,-12,-3
0,-4,-4,-4,-2,-37,9,6
2,-4,25,0,-7,23,-5,-23
0,-2,-5,2,0,-41,-5,14
9,-13,-18,-7,-2,33,-4,-11
0,5,13,10,8,-1,5,4
-13,3,47,11,-9,-54,-11,0
22,0,-87,-5,44,101,7,-8
18,22,22,-21,-27,-8,16,11
8,-8,-5,-4,-6,1,0,-6
-6,-15,-1,0,-8,-38,-8,-3
-13,-1,46,12,1,22,-3,5
21,-2,-8,1,-10,-44,-9,-6
-15,-4,-40,-8,-15,-14,-6,5
4,9,5,2,28,99,15,17
3,5,22,2,-10,-12,12,-7
3,-2,-6,4,7,21,4,-6
-10,4,38,5,-7,-3,-3,5
-18,-16,-32,8,17,31,-3,-4
-7,8,-39,-9,0,50,-6,8
29,13,36,-3,-16,-42,9,1
-14,-7,7,9,5,-15,-2,-12
12,-10,-40,-22,-9,-4,-8,-2
0,1,28,2,-10,-27,0,3
-3,-10,-34,7,5,-16,-1,3
22,10,14,-6,-3,23,-9,-19
-51,-13,-35,-5,13,27,0,-5
-4,9,16,-2,-8,-13,4,-1
17,-2,9,1,-12,-71,1,6
-2,4,12,3,0,-7,3,-2
3,3,2,19,57,52,26,18
25,-2,-6,-8,-23,-56,-12,-4
6,4,31,5,4,-19,0,0
7,-11,-50,-8,10,64,11,-7
4,3,6,-8,-26,-57,-18,-2
-18,-11,-1,-3,4,23,2,-34
15,6,27,9,-5,7,-8,-1
-4,1,-12,-2,7,15,-3,12
-5,-9,-37,-19,-14,9,7,2
13,9,42,7,0,-10,0,4
-18,0,21,-1,-26,-48,-8,-8
-8,-11,-47,7,40,64,1,-3
16,20,-13,-9,-10,-17,6,6
1,3,27,0,-5,-13,5,3
-2,-8,-2,3,8,13,-3,-7
-41,-12,3,-7,-17,-53,0,7
30,3,1,8,-11,-11,-15,-1
-29,-22,-42,-12,14,27,-16,-7
13,20,30,10,16,57,12,14
8,-1,-3,-5,-22,-29,5,-35
23,6,9,0,-6,-50,-10,32
-35,-7,23,5,-8,-59,-5,-12
-8,0,-3,5,18,70,2,-1
-8,-8,-7,-3,-20,-24,-8,7
2,-13,-62,-13,-1,4,-11,-15
-9,18,16,-11,-3,15,16,12
-10,-3,-5,-2,3,3,12,-2
7,14,49,13,0,-5,-2,10
-9,-11,16,6,-5,-11,-2,-15
11,-11,-21,1,-11,-75,-16,8
-29,-5,-17,5,48,89,26,-4
30,21,5,-12,-26,-109,-8,4
-16,-4,2,2,3,-18,1,-1
7,2,1,0,1,5,10,7
-19,-6,0,-6,-21,-64,-20,-31
-2,-12,-9,-1,9,56,1,12
-22,0,38,11,-11,-74,-16,-11
61,12,-78,-8,39,99,24,2
-1,14,-11,-17,-36,-101,-7,1
-2,-1,-4,0,8,8,17,0
3,0,32,-1,-25,-54,-10,-4
-18,-9,35,17,13,52,-2,-5
30,6,33,8,-8,10,-12,3
-11,-21,-66,-1,28,12,-21,-6
-6,-2,-50,-38,-22,52,28,14
9,12,25,5,8,-13,4,-10
-12,-8,-12,-6,-3,-4,-4,-14
-13,11,63,12,-17,-16,-8,-9
-16,-22,-14,1,-10,-74,-9,-6
-17,-11,-13,-2,-4,104,-2,-12
47,15,1,-1,0,-61,-7,22
14,3,-5,1,-5,-50,4,1
-16,-7,-16,0,16,10,9,-7
-4,4,33,-7,-42,-87,-13,3
-24,-8,42,16,12,2,-5,-1
17,-13,-72,-11,5,48,3,2
8,24,47,-2,-7,9,1,9
-10,-5,-8,7,-2,-28,3,2
-7,-18,-20,-12,-8,31,12,4
15,3,23,6,13,10,-3,12
-6,11,23,2,-15,-49,-10,-16
-31,-14,4,2,-4,37,-2,-10
11,-1,-50,-5,27,26,-14,-11
-9,2,18,-8,-24,-61,4,19
0,2,26,13,14,10,12,4
23,-1,-24,-9,-19,-56,-13,10
8,0,-17,-8,-10,-5,7,5
-23,-1,18,0,9,23,-2,-7
21,-2,4,14,13,36,-2,4
7,13,23,8,8,-7,6,-2
-62,-36,-91,-21,-35,-84,-11,7
7,19,55,12,40,88,28,2
22,-7,-31,-1,8,-9,-11,-23
7,-3,-19,-12,-4,32,-1,7
-28,3,19,-2,-12,-28,4,-4
-17,-3,-1,2,-8,-31,2,2
-1,-2,14,6,3,17,3,0
2,-8,-5,0,7,-11,-5,-1
29,10,11,3,4,3,-1,10
-17,-5,-4,-9,-38,-70,-2,-6
16,7,-8,10,72,108,7,-8
-1,-3,-18,-10,-19,-63,0,7
12,3,12,2,-1,25,14,11
-10,-5,-14,-2,-2,-17,-12,-1
8,-1,-3,0,-8,7,4,3
-10,-5,-1,2,7,5,-1,1
13,7,38,9,7,10,-4,9
14,-2,7,3,-4,-50,-7,-6
15,-7,-91,-22,-2,69,5,16
10,16,32,3,2,-12,9,6
31,10,10,3,4,3,5,24
-19,-7,9,-2,-3,-5,-9,-24
-7,-6,11,4,-3,-23,-2,25
-9,-6,-8,-6,-23,-68,-13,-10
-1,5,12,10,41,77,7,-14
12,-3,-22,1,4,53,0,13
-28,-29,-64,-27,-26,-59,-31,-23
13,16,31,-2,6,19,19,-6
-19,2,2,-1,-18,-51,-3,-20
18,2,12,6,4,0,-4,3
8,13,32,13,5,47,7,5
-12,-14,-24,0,-4,-29,-9,2
-5,-6,-9,-5,-3,-10,-9,-21
11,5,1,4,6,25,-1,21
-15,-1,12,-1,-20,-54,-1,-8
-2,5,25,12,22,40,6,9
22,9,12,15,14,57,7,-4
11,-13,-104,-34,-20,26,-11,-4
-15,12,27,-5,-12,-37,24,8
-16,-9,3,3,14,1,-1,-8
1,2,22,5,-7,-14,1,15
-10,4,29,10,1,-13,-2,1
19,0,-2,4,2,4,-10,2
0,0,0,1,3,19,-4,-6
-4,-11,-17,-6,-12,-37,-5,11
2,5,6,0,2,8,7,-2
-1,9,72,17,0,12,7,6
-2,-8,-35,11,30,64,-4,-1
12,2,-66,-29,-35,-83,-6,0
7,9,36,4,25,55,15,-7
-39,-10,7,-1,-13,-39,-4,-4
5,4,32,5,-7,-31,-5,-2
19,-10,16,-1,-38,-79,-17,-6
-39,4,7,29,52,83,-13,5
42,-6,-71,-36,-53,-128,-4,-13
-22,6,4,-9,-16,-67,15,5
-26,-5,2,2,6,3,1,-12
2,-5,20,0,-28,-81,-9,8
30,9,-4,9,19,61,0,-1
-23,-15,-41,-12,2,14,-6,2
-21,-1,6,-9,-9,35,2,2
19,4,20,1,-8,-41,-3,-5
-35,-2,-6,9,25,75,-2,2
31,14,-8,-3,-8,-33,15,-1
2,6,55,12,1,-1,-7,-14
-3,-14,-22,8,7,46,9,25
9,13,-9,-11,1,26,-7,-14
1,-2,-19,0,-10,-55,6,7
-4,-1,-3,-2,6,34,18,-2
-17,-7,-1,-5,-11,-65,-15,-24
12,4,32,10,-6,-30,-5,-5
-10,-7,34,5,-12,19,-23,-8
-18,-24,-73,-4,23,30,1,4
11,7,-41,-32,-39,-44,13,-29
0,11,31,6,9,-23,17,21
2,-9,17,6,-1,-13,-10,-8
23,15,51,15,-8,-13,-23,8
-49,-25,-51,-6,23,80,4,-6
56,14,-8,-6,-5,-22,20,5
12,3,9,-5,-2,11,-1,-8
3,0,7,3,-7,-17,-4,1
4,-1,31,9,-3,-16,-8,-15
-4,-5,-24,1,7,-3,-3,32
-11,7,7,-1,17,28,6,-32
10,-4,-4,15,50,49,15,2
10,18,23,-1,-5,10,7,10
-18,-2,29,8,-13,-52,-8,-19
29,-6,-12,7,-2,25,0,16
-78,-19,-63,-20,-5,16,-1,-27
48,18,5,-5,-2,-23,14,6
0,-3,-7,-3,-4,-5,-7,1
-10,1,7,1,2,15,0,4
10,-3,17,0,-5,-8,-5,3
8,9,15,5,3,-25,-9,-6
-48,-14,-8,-2,1,31,-5,-3
9,-3,-11,-2,6,-53,-7,12
22,14,26,6,16,103,32,1
-10,-16,21,5,-11,-63,-11,1
-21,-39,-92,-13,-15,-75,-7,-4
-25,39,39,-7,21,79,7,13
-14,2,8,-2,-17,-47,4,9
-23,4,30,7,8,18,10,19
-7,-7,27,12,-2,6,-7,-16
0,-15,-21,2,-31,-94,-13,-7
3,6,-28,0,51,56,9,12
4,-3,-17,-11,-18,-43,7,-4
-23,2,11,5,12,15,2,-1
22,-6,3,-5,-11,-21,-5,5
-9,-5,0,3,-13,-66,-14,-16
-5,3,30,-1,0,50,-12,0
27,-4,-61,-2,19,40,14,2
8,2,-11,-8,-4,17,5,-7
10,-7,2,-3,-13,-30,-3,4
7,4,-3,3,8,44,0,-13
0,11,40,2,-6,-37,-2,18
4,-5,3,1,-10,-15,0,11
4,3,3,4,16,74,-15,3
-5,-18,-34,-6,-8,-66,-2,0
-12,3,35,-6,-19,-4,6,-6
6,-18,-83,-3,18,16,-3,-2
-13,19,12,-10,10,27,15,6
-19,8,13,2,8,39,17,6
0,-2,29,8,7,3,-3,-16
-10,-4,11,4,-16,-27,-13,0
23,-3,-9,3,-19,-53,-9,-1
4,3,17,4,22,19,-3,-1
-1,4,23,0,-16,-43,2,-13
-8,-11,-43,-2,24,105,13,6
20,4,-9,-15,-24,-45,-6,3
-1,2,-7,-3,-6,-41,-1,5
2,7,14,2,8,2,-2,7
8,2,22,4,-1,12,2,6
0,-7,-8,-4,-14,-66,-10,2
6,-3,-14,0,-2,22,-14,0
6,-1,52,11,-5,6,3,0
-41,-16,-33,13,24,19,-11,-16
41,19,-67,-20,7,34,15,3
1,-11,-13,-17,-29,-69,8,-8
0,1,0,-3,5,21,-5,7
-7,-1,49,5,-17,-56,0,-5
6,-13,18,12,-7,-30,-11,4
3,-6,-34,-1,9,42,-3,-18
-4,1,-10,-1,9,-2,5,8
16,8,9,-6,5,9,5,10
-17,-6,1,-2,-8,-13,-1,-1
-6,6,40,0,-16,-35,-6,-1
-4,-9,-28,13,34,104,3,-4
10,-2,-44,-27,-23,-40,-5,-1
15,11,8,-3,-5,13,15,-7
-76,-20,5,0,-4,-34,8,0
32,11,23,5,11,23,-3,5
-12,-4,5,7,-4,-14,-11,-10
-7,-5,10,8,2,23,12,0
30,1,-23,3,8,11,-3,7
2,8,-14,-9,1,-6,4,13
-5,19,89,6,-18,-57,8,-2
-26,-29,-53,13,32,19,-20,-4
34,-11,-69,-30,-9,49,-3,1
9,27,37,-2,-11,-13,21,3
0,1,16,0,0,3,-1,-18
-12,13,69,11,-14,-41,-5,0
30,-5,-4,11,6,-14,-4,5
-40,-16,-55,-9,-4,-23,-27,-13
-1,8,11,-1,10,49,12,6
-2,-7,6,3,0,-9,3,1
10,-3,-21,1,-6,-32,0,-2
-7,3,19,-5,-4,-3,-1,2
14,-3,-36,-1,6,8,10,9
8,-2,13,-2,0,19,4,5
-19,6,0,3,3,8,-1,-11
-10,-8,12,-1,-21,-39,-6,0
5,-12,-18,4,15,-12,-8,-6
18,0,-13,-3,6,64,8,3
-27,-2,23,5,0,-17,-7,-1
8,-5,-23,-8,-17,-46,-1,-2
-13,9,-26,-11,24,102,7,-31
23,15,10,-5,-23,-78,4,14
-9,5,37,10,-8,-27,-3,-6
-21,-15,-17,6,19,32,-2,7
3,-11,-9,0,2,0,-1,4
6,-2,12,-7,-9,-22,-6,4
-10,-2,-12,-2,9,17,3,8
22,18,77,0,-32,-73,-11,-11
12,-16,-53,8,-25,-58,-12,8
-73,-21,-65,-30,23,67,2,-11
40,16,28,-8,-13,-73,11,-12
3,-5,-6,0,2,11,3,7
3,4,42,4,-8,-17,-1,11
-6,-5,-3,2,-11,-43,-19,-6
10,8,15,5,13,40,-6,8
-10,-9,-9,6,-2,6,3,-11
-21,-30,-83,-9,10,26,2,4
17,8,-22,-15,-14,25,12,-1
-1,12,21,1,14,18,14,18
11,0,18,7,8,10,4,-6
1,2,35,11,-11,-91,-18,1
3,-3,22,6,-3,1,-17,0
-21,-7,-28,4,4,4,8,-5
59,14,-45,-5,10,79,4,-2
-19,7,18,-10,-11,-8,7,-4
-1,-1,14,3,-10,-56,-3,-34
9,-1,27,4,-3,-39,-11,24
-5,-18,-48,-12,-2,10,-18,-9
-9,14,18,-2,-4,6,3,13
6,-4,2,3,0,-21,8,-13
1,-3,17,0,-9,18,3,3
-5,-18,-41,11,26,6,-1,3
-19,-2,-23,-23,2,59,8,-1
5,18,32,2,-8,-31,4,5
-4,-13,-5,3,5,12,-3,2
-15,-4,16,-7,-17,-50,-10,-5
42,2,33,11,9,8,1,0
-20,-1,30,18,2,-8,-4,9
27,0,-57,-13,-1,16,-8,-13
-7,9,11,0,10,32,17,15
17,0,7,-1,-7,-36,11,-10
6,-3,-1,-5,-1,22,-9,5
-3,2,22,13,1,-92,-22,16
5,15,8,4,36,97,28,-11
-4,-2,-10,3,-8,-54,-6,11
-33,-9,-23,-4,5,-26,0,2
-7,-4,7,-4,-13,-10,4,-4
0,-12,-8,-3,-13,-37,-18,-17
-5,7,26,8,9,30,-2,-1
17,6,24,5,7,9,-1,11
-12,-11,-47,-8,-4,-23,-10,-10
-3,1,-31,-7,-7,52,12,1
6,9,17,-4,-1,20,14,7
0,-14,-13,6,12,2,-6,2
16,11,21,2,-8,-25,-13,-8
-14,-10,-19,-6,-13,-6,-4,-13
57,13,12,6,4,-54,2,8
-29,-7,-17,-8,-8,44,10,-1
-23,4,30,2,-1,26,9,-6
-10,-14,6,9,-10,-124,-25,-1
28,0,-42,-6,4,40,5,17
8,4,-29,-1,32,90,12,-24
-2,5,9,-3,-9,15,23,11
-15,0,25,-2,-17,-53,-11,8
-16,-4,22,9,3,3,-8,-12
16,-6,-13,-4,-7,-44,-4,15
-7,-6,-31,-9,-5,27,-2,-18
13,13,31,0,16,22,1,8
-22,-3,-6,-4,-7,-36,2,2
48,-9,-2,4,1,52,7,-1
11,-3,-14,-4,-10,-52,-5,-5
17,14,13,3,13,26,9,4
-24,-6,-8,0,-1,29,2,-13
-1,10,54,2,-22,-78,-15,-3
-8,-12,-17,14,37,44,1,-1
5,-8,-43,-18,-21,-14,-6,8
0,0,-3,-10,-12,-11,9,-1
-7,1,6,1,0,-3,-4,-3
1,10,26,5,-7,-8,-1,16
-1,2,14,6,-2,2,-2,-8
-9,-12,-14,5,18,13,-18,1
6,1,-16,-17,-21,-6,6,-6
19,2,1,1,13,25,2,8
-44,-10,4,-2,-7,-29,5,-3
5,7,11,6,-5,10,-6,-1
-9,-7,-29,8,26,40,5,3
-4,5,5,-4,3,-1,-4,2
20,9,25,7,5,10,7,10
-6,-21,-71,-13,-26,-76,-8,-10
-5,5,-8,-5,3,20,0,4
-3,-2,-5,-2,-4,3,0,-8
2,10,20,8,20,24,9,4
-3,-1,28,-2,1,16,-2,-8
6,-3,-10,2,0,-18,-5,4
-29,-10,2,4,1,39,9,-1
19,12,1,2,2,-5,-5,5
-14,5,9,-1,-2,-6,8,6
-4,-7,10,2,-7,-36,-8,-10
31,-1,-33,-1,20,36,-2,15
3,-13,-19,-10,-14,-28,-5,-2
5,9,15,0,4,35,6,17
-11,13,52,5,-12,-28,-12,-7
-4,-8,-2,11,9,-6,7,3
15,-11,-57,-16,-2,-6,-3,3
22,18,12,-3,13,62,10,12
-21,3,21,0,-17,-40,9,13
-14,-1,34,2,-22,-57,-10,-5
12,-8,-47,0,19,66,2,2
33,-2,13,-1,0,-20,-9,-30
-55,-1,-3,-1,-8,-4,1,10
12,-1,-9,1,1,-7,2,-3
-14,-1,5,-2,-21,-22,5,-2
-10,1,8,5,25,63,3,-2
22,-6,-36,-4,-1,-16,-3,-1
2,11,27,0,-3,7,-6,-4
-5,-2,16,2,-6,-30,0,3
-8,0,4,2,-3,8,-4,-3
20,-6,-23,-2,3,-10,-1,-2
-29,-5,1,-6,-5,-32,-1,-3
14,8,-5,-1,-1,4,4,-2
-31,-4,20,-1,-3,56,0,0
10,-20,-56,-3,-12,-82,-6,-4
36,-9,-44,-11,4,116,23,13
-15,10,19,3,28,3,-2,-7
-30,12,15,5,-15,-57,-14,-7
3,3,16,0,-1,-4,6,-15
11,1,5,-2,-6,-6,-13,-19
-6,-13,-1,5,-5,-8,2,10
2,-10,-29,-15,-11,-57,-14,5
5,9,35,3,19,88,22,7
-33,-5,-10,7,-1,-28,-1,-7
-24,5,4,-4,-6,19,-3,0
22,6,-4,-1,-10,-102,-8,-1
-24,-7,-12,3,48,117,19,-7
-23,-2,21,2,-19,-40,2,5
-3,-3,12,12,-14,-31,-3,-1
16,-6,-6,16,50,50,2,0
15,1,-33,-18,-20,7,-4,10
2,10,4,-13,12,30,11,-5
-26,1,18,0,-18,-14,7,0
-4,-13,2,4,-17,-43,-9,10
15,7,28,16,4,-26,-14,6
-20,-1,-8,-2,-5,26,-5,-15
53,4,-7,-4,35,51,4,35
15,2,6,-1,-16,-29,11,-4
-13,-8,-3,4,-4,-22,-8,11
-1,-5,-24,-9,-19,-54,-11,0
5,6,20,3,1,-35,-6,-13
-11,-6,15,7,18,99,9,0
9,-12,-73,-25,-24,-49,-5,-5
28,11,-12,-11,-8,-48,0,7
-4,3,33,10,17,75,9,-2
3,4,22,3,-21,-47,-14,1
4,-11,-12,13,25,56,13,-1
6,24,5,-16,-8,-45,-13,-3
5,-1,-6,-10,-5,-16,11,4
-21,-3,9,-1,-9,-32,-5,-12
3,-4,17,6,-11,-20,-18,-4
-8,-18,-27,9,5,-11,4,6
-6,5,1,1,17,63,8,-11
-11,-7,-27,-9,-16,-31,-6,0
-12,10,40,1,-1,12,4,1
10,-2,1,0,-18,-60,1,-2
-46,-15,-44,5,55,60,6,-5
26,22,20,-4,-5,8,11,6
-36,-4,-16,0,-4,-31,-6,-1
2,7,54,6,9,-9,-2,2
13,-11,-9,4,-24,-32,-2,-2
-9,4,-3,-1,6,45,-8,0
6,-7,-30,-3,15,-22,12,7
1,0,13,-5,-9,10,-6,25
-6,2,16,1,-21,-40,-11,-4
-7,-6,0,-2,15,48,6,-9
28,6,12,-1,-34,-59,-13,1
-42,-25,-74,-12,19,91,7,-11
32,11,-1,-10,-8,-32,-5,-1
-8,3,-2,-6,-16,-59,2,10
8,17,74,26,40,90,8,-6
7,-25,-50,-1,-30,-66,-18,0
-12,-5,-37,-3,11,34,-4,-9
-26,8,-26,-15,-12,-25,20,1
-42,0,16,-7,-10,-27,8,1
9,1,33,13,17,27,-4,-6
-20,-5,36,3,-25,-38,-11,-2
-1,-10,-18,9,9,3,-6,-2
11,-8,-61,-13,5,22,-3,-18
5,6,12,-11,-13,-43,-4,11
-1,-1,2,1,-7,27,23,0
21,3,13,9,40,76,16,9
4,1,13,-4,-22,-44,-17,-5
6,4,10,13,8,4,0,-7
-6,-5,-5,-10,-19,-36,-17,-5
7,2,7,7,18,39,0,3
5,-26,-70,-24,-29,-25,3,4
22,23,35,9,6,4,-1,0
-15,-7,5,-2,-5,-26,7,0
1,-8,7,-2,-8,-27,-6,-7
10,14,66,11,-3,-42,-14,-7
19,-10,-37,7,9,57,-3,-10
-21,-10,-36,-20,-17,-37,-5,-4
31,11,5,-1,-2,13,9,3
-29,11,25,7,7,-3,-2,-19
-34,0,29,3,0,-1,4,5
0,2,36,9,-4,-49,2,-5
2,-8,-27,14,28,85,9,1
-17,-16,-54,-21,-37,-43,-9,6
41,28,37,10,43,24,24,10
-1,-10,-17,-1,-3,-10,-8,2
-20,-7,17,-8,-23,-94,-13,-1
40,17,35,12,13,79,0,-1
-5,-7,-24,-3,-3,14,-5,-3
16,-8,-26,1,-5,-17,-2,-29
-14,-8,-13,-20,-31,-29,-11,14
4,12,-1,4,35,-31,-6,5
-5,-1,-15,-1,-4,29,22,3
-52,-2,-9,-11,-28,-7,7,-1
-6,-7,6,6,2,-40,-11,-6
-7,-9,-4,-4,-7,-28,-6,-6
-5,3,32,-2,-10,-54,-17,6
17,3,-5,7,22,62,2,8
4,-5,-32,-17,-24,-19,4,4
-6,10,32,4,-12,-66,-5,10
17,-13,4,4,4,-10,4,-13
2,-9,-69,-5,42,82,2,3
1,18,16,-5,-26,-21,0,1
6,3,29,16,18,39,23,1
5,9,20,6,-11,-29,-18,-11
6,-16,-24,-9,-11,-95,-8,5
38,-19,-78,-16,41,83,5,-30
-50,4,1,-11,-9,36,37,6
4,0,7,0,-15,1,-2,-2
8,12,44,15,-1,-28,-11,2
-12,-5,6,8,12,-8,-4,-1
25,0,-4,-6,-27,-12,-10,0
-14,1,6,3,27,-16,-5,2
-1,-6,-8,1,13,91,16,15
8,3,-13,1,-30,-79,-6,6
-24,3,-15,-9,12,40,3,-5
-38,-4,-6,-8,-8,-20,2,-11
1,9,25,-1,-17,-46,-3,1
-21,2,38,24,40,97,4,-10
9,-12,-19,-1,-5,-25,-15,4
6,-6,-32,-6,0,15,5,11
13,9,18,-4,-10,-18,3,8
-11,2,9,-5,-27,-117,-19,-2
23,5,12,18,57,105,17,1
0,-8,1,-7,-23,18,-2,3
-1,13,33,12,4,-13,-3,-3
17,-15,-53,-9,2,-14,-5,-19
-27,2,4,-13,-31,-80,-14,3
1,1,-3,7,37,68,15,1
4,17,20,-2,-18,-11,-6,9
-53,-13,-2,-8,-13,-5,7,-1
25,-8,-16,4,4,-5,5,10
-10,-5,6,2,1,1,-3,-7
-12,8,25,3,-17,-75,-7,-7
7,19,58,23,64,124,23,16
-10,-48,-115,-28,-42,-75,-10,-13
23,18,22,-5,19,4,12,10
5,5,12,0,7,-1,-3,-49
10,5,29,5,-25,-51,6,-32
-34,5,42,18,26,19,-23,-29
7,-7,-25,3,-6,-4,14,45
24,0,-27,-7,10,86,24,23
-27,8,14,1,-13,-51,-10,4
13,5,7,22,18,-24,4,25
-11,2,16,57,-15,-20,-15,-8
5,-10,3,109,23,-57,-13,-5
-9,-44,-115,102,-2,72,13,5
39,13,11,62,-2,-15,11,19
-46,13,18,-22,7,12,3,-18
24,24,31,-75,-7,1,-1,13
-8,13,39,-85,7,-71,-17,7
-25,-31,-50,-81,68,38,-8,-14
17,5,-5,-69,102,21,-3,-14
-9,-4,-9,-39,112,30,4,0
-8,3,7,-1,36,-30,1,-7
-9,10,36,11,-71,0,-3,-31
24,-3,-11,-12,-107,-9,-6,-1
-29,-16,-22,7,-120,-28,-6,13
14,15,26,27,-89,39,3,1
18,18,42,-9,-74,-42,4,2
5,-37,-84,-32,-75,-44,-20,10
12,3,3,-43,7,106,8,4
24,-4,-45,-100,-49,-14,1,-8
-63,7,32,-31,-17,7,11,0
-16,-2,15,8,4,-39,-11,-18
-8,-4,2,7,6,-33,-10,-23
-16,-3,5,11,21,-31,-3,-2
39,3,-28,8,50,48,2,12
7,-5,-8,14,24,3,6,-3
-6,-9,-6,-8,-30,-88,-7,-5
6,3,27,14,79,103,30,24
30,2,-6,-3,-18,-39,-11,6
-9,7,18,6,-2,-24,-6,-6
27,12,23,-4,-17,-52,10,9
19,-5,-23,-9,5,28,-14,14
-26,-23,-68,-13,10,21,10,-2
55,15,31,10,27,31,10,6
-7,-11,-10,24,8,9,-2,-7
-10,12,34,31,11,-37,-15,-22
-15,2,17,22,24,27,-6,-6
-6,6,-2,16,-17,-107,-5,1
-26,3,0,16,31,102,6,3
8,-10,-11,8,0,0,5,10
19,0,9,10,8,-44,-2,9
2,1,7,6,4,21,18,0
6,-1,23,8,-21,-83,-25,-23
-4,12,21,4,12,-5,-20,4
14,-28,-70,-8,6,68,23,1
-17,13,31,-3,-3,41,17,10
-10,-10,-13,-6,-7,-14,0,0
16,5,13,-1,-26,-18,-3,4
15,31,85,11,-25,-128,-17,-9
-9,-32,-79,2,75,116,-2,-27
-4,-12,-51,-12,-6,-23,14,30
-9,3,15,-7,-17,-68,11,3
6,13,28,9,-3,-10,-6,-3
-8,17,61,9,-23,-52,-10,-10
7,-17,-46,-5,21,90,-6,-5
9,-21,-59,-8,8,37,2,3
2,14,27,-8,0,16,14,13
6,-1,5,2,-26,-22,-1,-2
-5,9,23,8,-11,-28,-13,-15
7,3,6,-3,-7,-60,-1,2
-3,-9,-15,3,38,59,-9,2
-11,-4,-10,0,7,49,11,11
22,6,1,-7,-19,-22,8,4
2,-6,-1,-1,6,29,9,-1
-2,-6,-5,-2,-12,-31,-5,-2
-8,5,17,-1,-12,-41,-10,-9
0,-5,-24,0,16,74,-2,5
-29,-15,-33,-10,-19,-25,1,7
5,7,1,-2,1,8,1,0
-13,-5,-6,-3,-4,-14,-4,5
2,3,18,3,-5,-24,6,2
6,16,48,6,-14,-60,-14,-10
-10,-3,-3,1,2,23,-19,-8
-17,-23,-86,-13,-17,-41,-1,17
13,4,12,-1,1,-32,12,18
-12,-2,16,2,-4,-33,-1,-13
18,3,17,4,0,23,-6,-1
-3,11,19,-3,-17,-64,-12,-7
7,-3,-5,4,13,60,-12,2
-29,-13,-33,-7,-5,-11,9,19
23,2,3,-4,-11,-19,7,2
11,4,4,1,14,35,5,-10
-2,2,3,2,2,-17,-4,-3
4,3,13,6,1,9,-7,-8
-3,0,-7,-2,4,-10,0,-1
-4,-6,1,-1,-1,20,-3,-2
0,8,12,6,19,23,8,4
-6,4,-1,0,4,14,3,-2
-10,4,1,2,8,11,8,1
6,-4,4,1,3,32,-5,3
6,9,18,0,-13,-36,1,-6
-8,-7,-5,-4,-10,-9,-10,-12
14,11,5,11,4,-18,2,3
-4,-16,-35,-5,58,79,14,10
-14,4,-3,-4,-8,-23,4,-22
-5,15,26,0,3,8,8,12
-4,0,16,-1,-31,-60,-8,-3
11,9,25,6,-7,-10,-11,-2
-10,-11,-14,0,8,4,-6,-4
12,-2,-7,-2,-5,-7,-3,0
-4,0,1,3,9,38,6,8
1,-1,-6,-2,-8,-29,-4,-3
-2,-5,1,-5,-14,-30,-2,-18
-2,-1,-6,3,22,53,3,-12
-2,-9,-28,-7,10,50,10,13
4,4,9,2,-8,-34,3,3
-6,-3,1,-2,-15,-36,-2,10
14,4,11,3,8,-24,-4,-5
2,0,24,3,-7,-32,-6,-12
-5,-4,-13,-12,-30,11,-14,-10
9,-17,-51,3,22,-50,21,36
0,9,14,-4,-1,-53,-11,-14
-6,-2,10,3,11,-20,0,-8
7,5,40,2,-36,-67,-17,-4
2,-34,-68,-27,-13,37,-14,-35
3,7,24,2,7,54,10,47
-38,0,14,-1,-14,-16,7,-2
24,9,9,3,12,-4,4,0
-12,19,24,8,7,33,-1,-7
2,-10,-29,-3,0,9,1,38
4,-4,-7,-9,-17,-2,-8,26
-19,-7,-2,10,14,6,11,8
22,13,18,3,-7,-44,-9,-18
2,-5,3,4,20,70,-6,-29
12,-9,-39,-3,-4,-73,7,-15
8,-4,-18,-5,5,19,3,-15
-3,5,18,-3,-14,-36,-3,20
5,11,25,2,-16,-38,-4,-22
-25,-11,3,0,5,33,-7,-18
32,6,-1,2,0,-20,21,-11
-48,-7,-14,-6,-24,39,0,25
15,2,-2,8,26,34,2,7
5,8,-4,-2,19,25,0,10
-8,-4,6,-4,-2,-21,-1,5
3,12,42,5,-7,-40,1,-8
0,-13,-21,-3,13,72,4,-17
-7,-10,-33,-3,-8,2,2,7
-1,-1,-5,-5,-12,-56,-13,-9
31,5,18,5,27,48,6,-6
-10,5,23,-2,-45,-98,-2,-1
21,-7,-42,-3,45,80,8,-1
23,10,-9,2,-9,11,6,19
-17,3,13,3,6,-6,3,9
3,-2,-4,-2,-5,-42,4,-4
-15,5,37,4,-14,-10,-7,-1
-7,3,-2,1,2,14,-4,-6
-4,-16,-27,-2,-4,-7,-3,5
-1,1,2,-6,-7,-6,0,-3
0,5,7,3,6,-33,-4,-5
-17,-1,9,0,0,24,3,6
-2,-7,-14,1,11,6,-9,-9
-9,-11,-22,-1,6,42,0,-6
6,-5,-27,-16,-25,-18,-1,7
5,11,25,3,3,-19,9,24
-22,1,20,0,-1,-39,-12,-11
10,-8,-14,-3,-18,-3,-8,-11
7,9,17,10,29,37,4,1
5,-5,-31,-5,-18,17,17,3
13,0,-7,2,0,-9,-6,-2
-8,0,-1,-2,6,-60,-7,6
-20,-5,16,2,-10,17,4,1
-12,-4,4,3,9,32,-9,-24
18,13,26,7,23,34,6,5
2,-9,-32,-4,-18,-10,3,4
11,-5,-3,-6,-11,-16,0,-19
-4,-6,2,0,18,34,5,-4
-13,2,-18,-4,8,40,-1,8
-1,18,39,4,-1,-10,11,12
-2,1,15,6,0,-5,-10,-6
-20,-24,-44,0,7,-3,1,14
-21,-3,8,-4,-16,-33,3,-7
2,-4,-10,-6,-1,-27,2,-5
1,12,11,6,6,56,4,10
-7,-4,2,-1,-3,-12,-8,-15
-2,13,31,10,10,4,3,-5
0,-23,-63,-11,10,58,10,3
1,-1,2,-10,-8,-87,-10,15
-3,15,32,3,-7,22,-12,-27
-1,-11,-24,-4,0,5,2,18
46,21,31,4,-7,3,-7,-13
-10,-7,-13,0,-6,-14,8,14
-26,-3,-3,0,0,-3,-6,-11
17,8,22,2,-8,-27,-5,-4
-19,-8,5,2,8,-3,-1,0
-17,-9,-27,-6,15,81,-2,-15
9,3,-2,-2,-10,-37,5,18
8,-1,-4,-1,-7,-5,-4,-2
-10,5,15,4,4,8,0,2
10,1,-6,1,-1,-11,-1,-17
-11,-10,-2,0,10,4,-5,-11
9,-5,-7,-5,-5,3,-1,-3
-4,6,9,4,1,33,2,7
5,-4,-27,-10,-2,-6,-8,-13
-3,1,-1,-7,-10,-14,7,19
-12,-4,-8,1,-1,-9,3,0
-7,11,18,3,0,-19,-8,-4
47,-1,11,5,-7,-2,8,7
-19,-1,-8,-1,1,-17,-3,-2
12,-7,-8,-1,3,45,2,-3
-9,1,5,-1,14,-45,-5,4
7,4,13,4,-3,43,6,-1
12,4,0,-6,-9,-15,-11,-3
-1,-19,-47,-1,-26,-20,8,18
-11,-5,-6,-1,15,-21,-5,-34
-1,3,17,0,5,-21,-7,-5
12,5,7,2,-1,5,-8,1
-20,1,2,-8,-1,21,4,9
14,-10,-23,-6,-19,-12,-3,13
-7,12,19,1,-11,-51,-4,-5
-12,-8,1,5,5,3,1,2
9,-1,1,-3,-9,-43,-4,-5
9,-3,-6,-1,9,46,-3,-6
-19,1,7,0,-4,-8,1,4
5,1,-13,-3,3,11,9,10
1,1,-2,-1,7,23,1,-9
-12,-2,13,4,-4,-24,-5,2
3,0,7,2,-14,-13,3,3
-3,-4,-18,-4,5,-7,-2,-2
-11,-4,-10,-4,4,-7,-2,-4
16,6,11,-4,-15,-25,-4,7
-4,-22,-40,-1,12,65,4,7
-7,10,24,-1,-6,-8,-1,5
11,4,9,3,4,-20,1,1
0,-2,-1,2,-14,-9,3,10
3,0,-10,1,1,-26,-1,-2
13,19,31,4,6,16,-5,-11
-10,-4,-1,-1,-5,-2,1,7
-27,-16,-27,-2,19,63,7,-6
12,7,8,-2,-11,-20,-2,0
28,-2,-6,1,4,-1,9,9
10,13,25,1,-8,-34,-7,-16
14,0,-6,-1,-6,26,-5,-3
-15,6,12,0,4,-9,2,13
13,1,2,-1,-5,9,2,-5
11,-14,-48,2,13,4,-2,20
-23,1,11,-4,-24,-59,1,6
-1,-2,4,-1,16,-5,7,4
-7,6,22,3,-7,-13,-8,-9
-13,0,22,4,1,11,1,-5
3,-14,-55,-6,0,29,2,11
20,17,22,2,-9,-27,1,-7
-6,-11,11,1,13,-3,3,-1
3,-8,-35,-9,2,16,-3,-13
4,7,13,-3,3,7,10,17
-14,-4,1,-1,-8,7,-4,-9
4,1,10,8,-13,-15,-3,5
10,5,7,3,16,1,-11,-20
7,-4,-21,-8,-9,-38,5,3
-6,9,32,2,16,32,-9,3
-17,-33,-73,-6,-9,4,0,8
-12,10,28,-3,-18,-19,2,-5
12,9,24,3,9,-6,-1,-10
-12,-6,-13,-3,-10,-20,2,0
3,1,3,0,-2,1,1,8
18,9,19,6,8,-1,1,4
-24,-7,-12,1,3,-2,-13,-27
2,-3,-4,2,15,66,14,16
0,-1,4,-5,-5,-18,1,-1
14,-2,-11,-4,-12,-8,-3,1
-25,3,16,6,6,1,1,3
22,-2,-3,-4,-24,-43,-5,-5
-46,0,3,10,41,62,-3,-10
-21,-10,-34,-5,16,75,17,8
-23,8,9,-7,-10,-12,2,5
-9,-5,-6,-1,-14,-41,3,-4
5,11,21,1,-2,-24,-7,-9
2,0,19,5,9,48,8,8
-1,-3,-9,-1,-7,-2,-9,-1
0,-10,-24,-6,-25,-52,-8,-11
-1,2,-7,-1,5,8,15,16
-4,8,22,2,13,11,-3,-19
31,6,8,7,17,27,6,-5
-5,2,0,-4,-5,-22,-12,-1
5,-13,-3,-5,-23,-29,-9,-8
-4,7,4,3,-7,12,3,1
13,-6,-40,-9,-14,-24,-4,6
8,9,17,5,26,21,11,6
5,-8,-11,-5,-4,12,3,2
7,1,23,1,-17,-90,-11,-2
18,8,31,5,1,58,-1,0
-17,-42,-91,-13,15,62,1,-6
11,15,25,0,-7,-14,-5,-1
-20,1,10,-4,-10,-29,3,16
12,4,6,3,-13,-28,-1,-4
14,10,13,3,-3,-16,-5,-9
-6,-8,-6,1,24,17,1,5
0,-6,-16,-12,-23,-20,-24,-16
-16,8,3,3,7,-24,8,17
-11,0,1,14,-22,47,0,-26
0,3,0,5,45,-14,13,4
2,-1,7,5,27,18,12,16
1,-8,-7,-12,-21,-37,-6,1
-6,1,22,1,-6,-7,-11,7
5,8,-7,4,-17,18,2,0
11,-7,-5,-3,-12,-34,-8,-6
34,-9,-33,-4,7,49,7,3
-30,-11,-22,-6,-1,-36,6,15
37,14,18,-3,-5,29,2,-6
-2,5,15,12,14,16,-2,-3
-1,2,14,4,-7,-61,-6,-5
5,6,5,3,15,72,12,-3
-20,-8,-7,-1,-1,-13,1,9
7,-4,-14,1,8,-1,-1,-3
1,-4,14,-3,-9,5,0,6
-11,6,29,-6,0,-7,-7,-15
15,1,-21,11,30,11,15,12
-23,-10,-19,4,-41,-6,-7,14
20,3,1,12,54,-22,2,-7
30,1,11,1,20,91,4,8
-7,-9,0,-44,-104,-40,-5,-5
12,7,1,19,41,-1,9,8
-10,-10,-6,16,-22,-16,-20,-28
-34,17,23,-3,28,-45,-2,12
-8,-1,27,8,-17,4,-6,1
5,-21,-62,-35,-22,-7,-12,-12
46,-5,-47,-12,2,40,4,11
-25,3,4,6,-37,-71,10,2
24,4,12,7,33,1,-3,-20
-12,11,40,6,6,12,-5,-13
-1,1,6,0,-1,38,3,0
14,-12,-21,-7,-26,-78,-15,-8
-6,13,9,13,46,92,26,20
-1,-2,-3,-4,-7,-34,-5,-32
-27,-2,8,-1,5,-12,3,4
26,0,23,2,-15,-32,-5,-2
-28,-19,-67,-10,-1,-4,-11,-2
-3,16,9,-5,-2,20,14,12
-34,1,10,-10,-2,37,3,-7
16,5,10,8,-4,-8,-6,-6
9,-3,15,1,-3,-72,-9,-7
-26,-17,-20,-20,-39,18,-10,-3
-22,-9,-19,-2,4,-28,-4,6
17,13,23,17,-9,-4,8,11
19,-4,-26,-2,19,-18,0,2
20,7,25,6,-1,-7,2,11
-17,-3,3,-13,-24,-31,1,3
33,-6,-51,-12,13,40,-7,7
-24,-6,-18,-6,-15,25,9,-9
9,9,37,9,6,-15,-2,2
-20,-8,9,3,5,19,-1,-6
11,10,29,1,-14,-61,2,-13
6,8,-2,11,50,104,13,-6
-31,-32,-57,-13,-11,-15,4,-1
48,18,33,9,6,11,7,-12
-16,-5,-10,-4,9,-10,-11,-8
-3,9,33,-6,-23,-58,-14,4
11,-3,5,10,-2,-2,9,14
-5,13,-9,7,23,70,5,-10
-16,5,9,-5,18,12,-1,7
-18,-24,-37,-5,-21,-51,-8,-5
6,9,5,-4,11,44,10,-2
-19,-5,16,1,-38,-76,-11,2
13,2,9,10,36,78,6,14
-19,-2,7,1,0,11,-9,-21
-8,-7,-49,-8,-8,-17,3,9
-24,-10,-34,-14,-9,-33,4,-3
1,3,2,4,6,29,14,-15
9,2,14,-2,-17,-21,-3,-4
8,12,32,8,6,8,-1,-6
-13,-6,6,4,13,0,-2,1
0,-10,-21,-4,-7,-31,-11,-5
10,3,-6,-5,-7,14,2,15
4,8,-3,-5,-12,-72,-2,5
28,7,20,16,35,97,16,18
-27,-8,-7,-3,7,0,-5,-17
7,5,19,6,-5,-17,-2,23
3,-6,-17,-8,-9,-23,4,1
-7,-3,1,0,-9,-42,-13,-2
5,3,0,-2,5,57,15,15
-16,2,-15,-6,-19,-15,0,-6
4,5,21,9,16,19,-3,-4
-23,2,18,1,11,3,5,7
-6,-11,-31,-6,-9,-9,1,-2
6,-2,6,0,1,-28,-9,-13
2,1,12,4,-6,8,-4,-14
0,2,9,3,4,0,-5,-11
5,6,10,-2,-7,-1,-2,-8
-3,-8,-28,-2,-5,-12,-9,-6
-33,-4,-10,-3,0,-7,1,4
19,7,14,1,1,0,9,3
-5,-2,-9,-5,6,7,3,-2
14,1,10,-1,-3,0,-3,-3
4,3,33,11,2,21,4,14
16,-6,-31,2,5,10,-2,-4
-39,18,55,5,2,-34,-8,0
24,-18,-71,-4,8,25,14,19
8,-8,-30,-15,5,20,-6,3
-2,10,32,-6,-19,-7,3,14
6,-3,4,-3,-19,-40,-12,-5
-14,8,40,14,11,34,10,-12
-4,-4,7,8,5,-33,-10,-19
12,-2,-25,0,25,83,-6,-9
13,-1,-18,0,10,14,12,2
-4,-4,3,-18,-29,-88,-9,-10
10,-4,-4,9,0,36,2,1
25,1,4,8,17,30,7,7
9,-5,-8,0,11,-16,0,30
7,14,46,7,-8,-29,-4,26
25,11,-28,-5,18,33,3,17
-87,-25,-28,-14,-21,-15,-5,1
20,7,9,3,2,39,11,10
7,-15,-12,-1,-4,-18,-1,4
-2,8,40,6,-1,-26,-3,-2
2,10,14,-1,-13,-71,-8,-16
-25,-20,-46,-5,8,84,-1,-49
-33,13,0,1,4,10,-5,-45
-57,-1,10,2,1,-7,0,-44
41,5,4,2,-3,4,-3,-25
-24,-10,4,-5,-26,-95,-9,-3
24,9,14,11,35,75,8,13
3,-8,-22,-1,7,20,-7,16
-7,-5,-16,-17,-33,-81,-2,31
-14,-2,4,-1,-7,23,7,26
6,3,15,5,16,53,7,34
9,1,16,7,15,4,1,80
-2,-10,-25,-7,-8,-18,0,0
115,8,-4,2,8,33,-4,58
11,7,10,2,-3,-25,-4,16
-22,-1,12,-4,-19,-8,6,-49
-37,5,2,8,16,18,2,-62
-69,-15,-33,-8,-12,-14,0,-90
-14,11,23,-3,1,2,-2,-67
4,-7,-11,0,-2,-2,1,-31
11,4,13,-2,-4,0,-7,-4
12,8,15,5,-2,-25,0,21
11,2,38,0,-11,-10,-8,30
42,-19,-81,0,30,51,17,48
-2,8,34,-2,-1,-33,0,70
39,7,3,-2,-1,-13,0,46
-5,-11,4,-7,-18,-63,-2,30
51,0,24,1,-17,-29,-9,7
27,1,2,5,2,54,-7,16
-51,4,13,13,14,-17,3,-14
-36,-12,-34,4,42,66,10,-54
-75,5,2,-10,-15,-51,-1,-53
3,-6,-11,-7,-17,-11,3,-30
-3,3,22,2,-27,-53,-12,-18
14,-11,-26,2,-4,4,-6,-8
28,7,15,4,9,38,1,24
3,-5,-44,-5,-4,-19,0,52
7,-14,-32,-8,6,22,6,14
-39,7,1,-3,-5,-5,1,-4
-20,2,12,-4,-3,-12,6,-35
-21,7,37,8,5,8,-2,-32
-11,-5,2,6,1,9,-7,-43
-5,-15,-58,-4,11,51,4,2
6,9,43,-1,-9,-36,-9,-14
30,5,-4,3,5,38,5,-19
-18,-7,-24,-8,26,15,-7,9
42,5,18,-5,-29,-82,-4,21
15,4,24,8,16,22,4,23
3,-12,-37,0,-10,-41,1,13
8,3,4,-10,-7,6,-3,17
-3,5,-2,2,-3,0,0,0
21,0,-9,-5,-14,-4,-5,-13
6,1,10,0,-4,0,12,4
-14,2,8,-1,-9,-13,-8,-19
-9,-5,3,0,1,-36,-9,13
16,0,-13,1,3,35,0,14
-28,-2,-10,-3,-16,-62,-12,-6
5,4,-8,1,14,65,12,20
15,5,6,-3,-8,7,1,11
-10,-10,-21,1,-2,-4,12,15
0,0,25,3,23,77,0,-3
9,-2,0,5,-9,-56,-9,7
17,14,19,5,-1,5,7,10
-10,-6,-37,-6,-10,-19,-1,5
-13,-21,-33,-13,-2,13,2,-8
8,4,14,-5,-14,-36,8,11
-31,-12,44,7,10,3,-3,-9
11,11,-13,1,-2,-1,-18,-4
30,15,4,0,5,-4,13,6
-27,-12,-11,-2,-2,-12,2,-4
7,-5,-2,-3,-6,-25,-10,-6
-3,-2,13,0,-5,-4,-1,-2
-4,-7,-6,1,-8,-57,-10,-5
31,9,20,10,11,44,5,1
-13,3,-27,-7,-4,17,-6,-5
-17,-1,-23,-11,4,-17,0,3
13,5,12,-3,1,8,8,1
-2,3,23,3,-3,-14,1,-1
-7,-14,-27,-6,-15,-56,-11,-6
7,0,-2,-7,-2,28,-4,-2
-32,9,14,2,10,-2,5,12
-21,-1,7,6,3,-17,4,5
9,0,3,8,11,57,-1,-6
-3,-5,-11,-13,-31,-111,-2,-6
-2,4,16,12,25,115,7,-4
-3,-12,-36,-4,7,-11,-10,-5
-12,2,-5,-3,2,-24,9,-16
-9,3,9,2,10,8,4,13
4,4,13,-3,-20,-34,-12,-32
-9,-6,-4,-4,-9,5,-1,2
8,1,13,7,0,18,4,-8
-9,-11,-46,-4,4,-7,-1,-1
31,14,8,-4,0,5,-6,6
-15,2,0,1,-3,7,7,-2
8,-7,0,-6,-12,-41,-8,-9
4,0,35,7,5,39,9,-6
-14,-8,10,10,8,39,1,4
23,-1,-27,-7,-9,-23,-10,-4
-18,0,-16,-9,-12,-14,-4,3
26,7,14,9,21,0,5,-6
-10,-5,-15,-4,-1,28,4,1
15,10,33,-3,-14,-38,-10,-12
-10,-8,-7,2,10,15,1,4
-9,-6,-1,6,-5,20,-1,1
9,-5,-31,-16,-13,-40,-5,-8
21,9,19,4,12,14,8,6
-11,-3,-17,-3,0,12,0,-1
-5,9,22,7,11,11,3,11
3,-5,3,1,-3,-3,-2,6
-1,-6,-21,-6,-7,-11,-2,-2
6,5,10,-1,2,-4,3,14
-2,2,37,5,-4,8,-4,1
-10,-7,-10,2,-23,-75,-3,-4
-6,-10,-56,-6,28,43,3,2
-15,11,7,-8,-3,25,9,7
-6,5,26,7,6,3,1,1
13,1,7,3,-12,-70,-11,0
-27,-13,7,-6,-1,69,6,-22
-21,1,2,3,0,-36,-7,4
1,-2,-19,-5,10,51,3,-3
-13,7,15,7,9,2,10,1
4,2,-3,5,-1,-2,2,3
6,-5,-12,-2,4,7,1,3
6,1,4,-8,-21,-43,-3,-6
2,4,-1,0,9,21,2,6
-3,-1,16,5,-4,-2,-3,8
11,-8,-12,-2,-12,-25,-4,3
-12,-3,-25,-3,-17,-97,4,17
42,4,6,-2,52,119,1,-19
-14,10,15,0,-14,-51,4,3
12,4,14,7,5,-11,-1,-14
11,-2,16,7,-6,2,-6,-3
-15,-20,-43,-6,-22,-5,-5,-2
-16,11,15,-1,15,5,-2,-1
22,-4,-33,-2,3,20,-2,11
-12,3,6,-7,6,33,3,-13
-12,-10,-8,-3,-18,-37,1,-1
6,-8,8,0,-14,2,-9,0
-13,8,51,3,-17,-43,-2,-5
16,-5,-75,-1,36,64,2,2
-10,-3,-6,-11,-12,-9,2,-3
20,2,19,2,-6,-52,-5,-11
23,0,-16,-1,5,47,7,-9
-25,-8,22,1,-17,-41,-2,2
4,2,2,7,15,2,-8,6
5,4,1,-1,8,36,6,3
4,-10,-27,-11,-14,-20,4,5
-19,-3,12,4,1,4,-8,-7
3,4,-2,-1,4,-10,4,8
-10,0,19,3,-7,-10,-5,0
-15,-5,-11,6,21,43,10,-3
17,9,19,2,-5,1,-3,-3
-7,-9,-20,2,6,-19,12,6
-9,0,-1,-4,-4,2,-13,-48
35,11,33,2,-9,3,3,9
4,-6,-23,0,18,34,-2,-17
-11,3,17,-2,-17,-31,-3,15
-3,-7,-9,4,11,-10,-2,6
1,6,3,1,5,6,-3,7
-6,-3,9,-3,-23,-69,-5,-6
-3,-6,-20,-5,-4,46,0,-3
17,-1,-16,-8,1,3,4,4
-12,-1,8,0,-11,-59,-1,14
2,3,13,3,3,55,5,1
13,15,61,12,3,-38,-23,-19
-19,-18,-91,-2,15,36,-1,14
28,10,5,-7,-11,-45,13,-10
-4,1,10,-3,-4,-3,11,1
-8,1,23,3,-7,-19,1,7
-6,-4,22,0,-12,-12,-4,0
3,-3,-11,2,9,22,-14,-4
10,-10,-21,-10,-9,-2,0,5
0,7,4,-6,-2,-36,9,-1
3,7,14,3,9,33,8,12
-4,0,-23,4,24,80,0,0
28,1,18,-4,-8,-26,-5,10
-19,1,-3,-4,-17,-37,1,-8
5,0,6,5,10,22,3,-18
-27,-10,11,-4,-23,-43,-17,0
-4,-3,-7,9,21,15,0,2
13,-7,-39,-7,-15,0,-3,7
-16,4,0,-8,-12,-26,1,-1
-1,0,8,5,13,25,6,-9
-18,-1,9,-4,-3,1,9,5
11,-2,-8,2,7,7,-3,1
1,8,73,8,-12,-20,-4,5
-8,-30,-85,-7,-18,-67,-9,-4
37,10,-29,-11,14,51,-5,-7
11,7,15,-4,-2,-4,20,18
-10,3,7,4,10,4,5,-8
16,4,32,6,2,-15,-8,11
-3,-7,5,8,-25,-21,-8,-7
-2,-13,-13,5,15,5,-15,-9
11,3,-18,-16,-23,-70,-1,0
20,10,17,9,35,109,22,3
-13,-7,-22,-3,-11,-52,-9,5
-8,2,24,1,-2,5,-2,-6
-8,-13,-17,-5,-27,-68,-13,3
-31,-3,26,4,1,1,0,-7
34,13,-15,5,17,4,-3,-1
-64,10,6,-3,21,67,6,2
16,0,-16,-7,-8,-26,7,11
-1,3,22,-6,-12,0,5,-29
-13,-5,17,9,2,-2,-2,5
15,-9,-16,1,-10,-25,-12,-3
5,2,-5,2,12,29,-1,4
-10,0,-3,1,3,-2,5,3
-15,-7,-2,-10,-13,-37,-7,-2
8,1,-21,-5,1,16,5,-6
2,-2,-4,1,7,53,8,7
6,7,21,3,-6,-5,-5,-4
-20,-12,-9,-1,7,11,-1,3
22,1,-29,-5,-8,-21,-6,-6
-20,6,23,2,16,11,11,2
6,-7,-27,-9,-19,-43,-4,8
0,-1,-2,-4,-2,14,2,-6
-18,3,24,3,6,10,4,9
8,8,23,8,-12,-18,-8,-25
-11,-24,-80,-9,19,43,-7,2
-18,4,1,-12,-9,2,11,-3
3,2,19,2,-1,-2,7,0
16,-4,-1,2,-3,-3,-8,0
-3,5,13,-2,-12,-27,-2,5
4,4,25,7,1,-33,2,1
-5,-7,-19,9,46,67,12,12
19,11,-5,6,15,-17,-2,14
-20,-2,5,-6,-6,11,2,-7
11,3,2,-3,-13,-40,-3,7
10,3,31,8,-3,-30,-7,-6
-11,-17,-42,-4,-7,38,10,8
10,8,-2,-6,2,-17,-9,-1
0,5,22,8,8,35,10,1
-4,-3,-13,-2,-25,-25,0,-2
27,-8,-30,-13,3,1,-9,0
-46,11,41,7,8,21,11,5
0,2,-5,0,-5,-27,2,10
-15,-13,-15,-7,0,15,-5,-27
14,22,76,11,-10,-84,-8,3
8,-23,-98,-5,9,73,5,-2
-3,12,6,-8,16,23,-5,-6
-1,0,11,0,-8,-25,5,6
-32,-13,2,2,-8,2,-2,-9
25,15,28,-4,-23,-95,-8,-7
-22,-7,-7,6,13,67,2,-5
24,-3,-11,-4,-9,-10,2,8
-14,-3,-4,-2,-3,-21,-12,-9
6,0,18,6,14,14,5,9
13,0,0,3,-5,3,-3,-8
-26,-10,-24,-4,-3,-18,-4,3
41,13,4,-1,20,79,16,-9
-40,-4,-3,4,-5,-38,-5,-5
-4,2,20,2,1,-8,-4,-1
7,-16,0,2,-15,4,3,5
17,-7,-68,-9,-4,19,-6,0
42,19,26,-4,-5,-21,6,6
-20,-5,7,6,8,32,21,-6
-5,1,19,5,2,-6,-19,-3
-14,-13,-11,-2,-1,-8,3,5
18,19,64,5,-29,-60,0,7
1,-16,-60,11,52,80,-12,7
-21,4,-13,-9,14,47,27,10
-10,3,4,-4,-11,-10,10,10
-17,-8,1,-1,-9,-27,-7,-11
5,0,15,0,-23,-67,-5,-8
12,1,0,5,8,17,-12,2
-7,3,22,6,6,-9,-2,0
-17,-19,-14,0,3,15,-2,1
12,-4,-58,-19,-19,-17,-5,2
44,23,14,-2,7,0,11,1
-55,-3,20,-4,-4,-21,10,2
26,4,21,12,3,39,-12,-3
-3,-24,-50,-11,-29,-80,-16,-6
-10,11,18,-1,9,38,13,8
17,1,9,12,31,30,1,-16
-12,-7,-15,-4,-7,28,-1,-9
18,6,4,0,1,-23,7,7
2,-1,-1,-3,-11,-25,-2,4
-7,-4,-7,-2,-15,-28,-6,-2
0,-1,-12,-1,20,23,-4,10
4,13,23,-4,-10,14,10,-8
-6,-18,-11,0,-6,-32,-13,-7
0,-3,-14,-4,-5,-16,-2,9
2,-3,-23,1,9,25,-1,-3
20,13,31,3,2,71,12,0
-29,-4,-14,-3,6,-28,-11,-5
24,5,4,-4,-10,3,5,2
6,3,-2,5,6,-24,0,7
-38,-7,23,6,28,29,-3,-1
29,1,1,0,-1,11,1,-2
0,-7,4,-1,-17,-38,2,9
-23,-5,-23,-5,-11,-48,-11,-13
42,4,-15,-6,7,40,1,40
-30,-2,1,1,3,3,6,-11
2,2,0,0,3,4,2,-1
20,2,9,-3,-11,-26,-3,3
-18,-6,-2,-2,-16,-41,-3,-7
6,-5,-1,-2,-4,0,-6,1
6,0,-4,0,0,4,-7,5
-5,13,65,9,-4,5,9,3
-28,-15,-47,14,34,63,2,-9
6,-10,-28,-22,-12,-3,-11,-2
-59,-7,-10,-9,-1,-1,17,-5
22,7,0,-5,10,2,6,3
14,13,48,7,-13,-40,-4,-9
18,4,24,12,-4,-9,-4,1
-1,-15,-35,-2,6,28,-8,-3
-2,-6,-10,-5,0,8,1,-2
-3,0,10,-1,-10,-33,-2,0
-6,-3,-16,0,5,1,1,-4
4,1,-2,-8,-16,-32,-7,-5
-6,5,19,4,-29,-62,1,2
1,11,60,25,53,84,-14,-33
-13,-27,-98,-22,-5,-24,13,18
74,39,31,-2,18,45,8,-3
-9,-5,-2,-10,-7,-30,10,-2
-12,-2,8,-5,-34,-57,-2,3
-1,7,47,13,-1,-10,-12,-7
7,-13,-16,7,3,1,-8,1
-1,-8,-31,-4,5,36,-1,-2
-9,0,-3,-12,-13,-28,0,3
3,6,16,-1,-4,-13,-1,-4
-9,-3,-8,-1,-10,26,8,-7
4,9,33,18,41,65,-11,-21
-12,-10,-15,-3,2,-29,-1,8
18,-2,-21,-14,-13,-6,5,1
-29,-3,-36,-6,-16,-24,8,0
10,2,-12,-8,-8,-11,1,-2
-4,-2,3,-3,-2,-2,4,4
10,12,37,10,2,5,-6,-1
-10,-8,14,1,1,-13,-10,3
-8,-9,-23,-4,-10,-48,-4,-3
2,2,-5,-4,-24,26,3,3
12,11,14,20,58,43,6,9
-9,-1,-8,0,-1,-8,-9,-5
-12,-11,-16,-2,1,2,-4,5
16,9,12,-12,-31,-66,3,-2
-31,-6,-18,-9,-14,-6,-5,-6
47,7,16,9,20,37,1,8
-25,-9,-11,-4,-3,3,7,11
-11,-4,-27,-5,1,9,-1,-10
21,12,27,8,6,8,-1,7
-11,-16,-20,-8,-7,-27,-15,-6
-3,8,10,-5,-8,15,7,11
12,-8,3,4,9,14,0,0
10,6,7,3,-12,-23,-4,-3
-3,0,7,3,-3,3,-3,-2
-7,1,-8,5,31,85,10,-1
17,-1,-15,-5,6,9,-6,3
-19,-1,4,-8,-22,-39,10,-10
-15,-3,8,3,6,-8,-9,0
30,4,1,-1,1,-8,-5,10
-5,1,-15,-3,8,-12,0,5
1,-8,2,0,-15,-10,-1,6
-4,14,72,13,2,40,7,-9
1,-12,-26,4,11,-19,-13,-3
-29,-24,-69,-21,-4,-6,-3,-4
18,15,24,-9,-5,2,10,1
11,-4,-2,-11,-15,-5,0,4
-61,5,41,10,4,-1,4,-4
13,-3,16,9,1,-27,-3,3
-23,-11,-20,2,9,40,-2,-4
10,0,-12,-6,-10,-49,0,1
19,4,24,-2,-8,11,2,-7
-17,0,-24,13,32,96,3,12
1,0,-18,-11,-16,-28,-9,-12
-3,5,2,2,6,-15,10,6
-8,-5,-8,-6,-9,-33,-3,-4
11,8,25,-1,-16,-34,-2,-2
-3,0,12,5,12,22,-2,3
-8,-8,-19,1,-6,14,3,5
15,3,-13,-1,-3,-7,2,-5
-11,5,31,3,-4,-30,-3,11
2,-8,19,22,19,23,-11,17
1,-19,-91,-29,-6,26,11,1
-8,2,-35,-16,11,56,18,0
36,15,21,-7,-13,-30,15,-1
-7,0,15,5,-5,-24,-2,-5
-3,6,47,19,14,-4,-16,-1
16,-10,-6,3,-5,3,-8,0
-8,-9,-18,-4,-9,-12,-4,-6
-4,1,1,-2,-3,2,0,-6
8,5,7,6,-3,-32,1,-2
6,1,-9,-2,4,40,4,-4
-3,2,9,-2,-10,-28,-6,-3
-6,-5,0,3,8,16,-14,-2
-5,11,25,-6,12,56,3,1
11,-11,-48,-2,-19,-39,6,3
-16,4,3,-4,-8,0,7,-3
13,5,3,-7,0,-4,13,5
-7,-2,5,5,-5,-21,-9,1
3,5,30,6,2,-14,-10,2
1,-6,-2,3,8,14,0,0
-2,-3,-24,-8,-6,-4,0,-5
3,1,8,2,-4,-4,-2,1
3,2,11,-1,-2,-8,-4,1
0,3,29,11,6,11,2,-5
-3,-8,-15,4,20,18,-9,-5
12,-5,-55,-21,-15,-4,-1,-1
-9,6,10,-3,-7,-18,8,4
5,2,-1,-4,-5,-11,-3,2
-8,2,34,7,-8,-4,8,1
7,-5,4,6,7,-2,-8,-5
2,-2,-11,-1,-6,-25,-8,0
-3,5,11,5,-7,16,-4,-2
8,4,0,4,26,38,14,0
-15,-6,-9,0,-7,7,-3,1
-20,-9,5,4,12,-7,-9,-18
12,6,13,1,-4,-25,-1,1
20,-6,-30,-15,-21,-30,-3,4
19,10,-14,-9,-16,-7,7,7
-13,-6,4,0,5,-15,4,-4
7,-2,-3,0,10,-6,3,3
-2,1,8,3,-2,36,-2,-7
-6,1,21,9,10,-8,-4,-5
5,-3,5,-2,-7,0,-5,4
-4,-6,-20,-5,-2,2,-1,-1
-4,4,10,2,-18,-61,-6,1
-23,-8,11,10,37,54,7,0
14,9,15,-1,19,79,6,5
-2,-13,-47,-9,-8,-14,4,0
-13,-1,-18,-11,-14,-28,0,-21
-5,2,14,-3,-14,-21,-1,-3
26,6,18,5,-3,-13,-2,1
-2,-1,14,4,2,17,-2,-2
8,-5,-1,5,0,-2,-4,-3
-13,-4,-3,-2,-5,-33,-3,2
-2,2,7,4,9,47,8,3
1,1,0,3,-5,-24,-3,4
7,-7,-42,-12,-11,-13,3,5
-60,0,24,5,18,13,6,9
7,8,-8,-8,-13,-6,-1,-3
11,7,12,7,11,-7,-3,-3
-10,1,-8,0,-6,-26,1,0
7,3,4,-2,-2,35,-1,-5
5,-6,-1,2,0,-27,-1,4
-16,-1,5,1,4,3,-2,-3
4,-1,7,1,2,8,-4,8
13,1,-9,-3,-18,-29,-9,-11
-5,5,33,13,12,27,1,9
-8,-18,-38,-2,-4,-14,-7,-6
1,-1,-37,-21,-3,20,3,4
16,9,29,-5,-7,-30,9,7
12,7,-11,-2,-3,14,4,-1
-11,2,28,9,10,30,-5,-6
-7,-5,17,7,6,-2,-5,-3
4,-7,-16,-2,1,-3,-4,3
-5,-6,-5,-3,-6,-21,2,-4
0,-1,-4,-5,-2,-3,-3,-20
-16,-1,8,1,-9,-40,-2,-5
27,11,28,8,4,53,0,9
16,-25,-88,-14,21,26,-6,-10
4,12,11,-11,-14,-47,10,22
-8,7,14,3,13,45,9,2
-6,10,17,5,-17,-54,1,2
22,1,14,10,3,-7,-7,2
0,-12,-19,-2,3,21,-1,-7
-9,-2,11,-1,-4,-10,-4,4
24,0,-10,5,8,9,4,-1
-38,-1,13,-3,-1,-12,-9,-23
1,-4,-12,-5,-5,23,7,6
9,5,25,4,5,-4,-5,0
-5,-8,-17,-4,-5,14,-1,0
-7,-6,-10,-2,-8,-24,0,-1
2,-1,-10,-3,4,-3,2,-2
-10,3,-1,-5,9,26,5,1
-5,-2,0,-1,3,2,3,-4
-12,3,24,-1,-15,-37,-2,4
-1,1,6,5,1,17,-3,7
9,-6,-13,-1,-5,-2,-1,1
-12,-7,-4,-5,-9,-38,-9,-10
3,0,-4,6,3,26,-1,6
10,-2,-33,-8,-12,16,0,2
-6,8,9,-1,9,-13,-2,-4
4,-2,4,-1,6,-4,6,2
19,2,-2,-1,-7,-10,0,2
-12,0,13,1,-2,7,0,-2
11,-3,-6,2,-4,-5,-7,0
-2,-4,-11,-5,-7,-20,-3,4
-15,-3,-3,-4,-7,1,1,8
0,9,34,7,4,18,5,-9
-5,3,12,18,12,25,-1,18
1,-28,-102,-18,24,20,0,2
-21,23,27,-10,-10,-13,13,7
-11,-9,-3,-2,-6,-15,3,-3
4,6,36,3,-15,-16,0,-6
-3,1,7,8,1,16,-3,-8
-2,-12,-21,-1,2,-4,-3,5
-2,9,12,-2,-1,-16,-4,1
-2,-7,-12,-1,5,-8,-1,-5
3,-1,-1,-1,-18,-10,-4,-2
3,2,5,-1,-6,-5,-3,-6
4,13,54,16,20,16,0,11
0,-24,-59,-6,6,16,9,6
11,9,-18,-15,-11,-26,-5,-20
-44,-5,-6,-7,-9,-19,2,3
1,-3,-9,-7,-10,6,1,-1
-3,6,18,5,0,-7,-1,-1
-2,0,21,6,-1,1,-1,3
11,-3,-3,2,11,8,-1,-3
1,-7,-18,-5,-11,-51,-6,1
-1,0,2,-6,-8,43,8,-1
-16,3,25,9,16,58,5,-16
9,-3,-18,5,15,15,-6,4
7,-5,-21,-3,8,-18,-3,-11
-5,-6,-24,-10,-17,-24,3,3
-1,10,22,-3,-6,-21,1,2
18,5,17,0,-8,2,4,2
4,1,-2,2,-3,1,-2,-2
-6,-1,0,-1,-1,-13,-4,-9
-5,-6,0,6,3,13,1,6
4,-1,-3,0,4,2,-3,-1
-8,0,14,1,-4,-9,0,3
-6,-4,16,0,-6,-16,-21,-15
31,0,-55,-4,6,37,15,28
-42,6,7,-4,8,-20,9,-10
11,-2,-5,0,10,23,8,10
-26,4,21,-2,-12,-28,-3,2
1,-4,14,7,-7,-5,-11,-2
8,-8,-10,-2,-6,7,-2,1
3,-2,0,-1,-1,-2,1,-2
3,3,0,1,12,11,3,-3
-5,-4,2,-4,-4,-24,-4,1
8,-4,-1,-3,-12,-16,-3,-4
-3,9,21,10,-2,-7,0,-8
19,-12,-40,6,32,89,0,0
-25,-1,-10,-10,21,-1,4,-3
42,3,-1,-2,-1,-2,7,1
-9,6,-6,-9,-5,8,1,-4
3,9,23,0,-19,-38,1,7
-8,-5,24,8,-5,-7,-8,-4
-15,-6,4,5,6,9,-7,-3
7,-5,-10,0,-5,-12,-5,1
3,-2,0,1,2,7,6,1
-1,0,5,0,2,3,-2,-5
7,4,-2,-5,-11,-11,-2,4
-9,-7,0,-2,-10,-28,-5,-3
-4,15,59,20,20,4,-5,-2
-1,-19,-88,-19,-4,20,9,26
7,-2,-17,-13,-2,1,4,-5
-18,4,-9,-11,-1,-6,5,1
20,10,12,-2,-17,-35,3,7
-21,-1,41,11,-7,-10,-3,-6
-1,-3,3,10,6,22,-6,0
0,-8,-17,1,3,8,-4,5
6,-1,-8,-6,-7,-15,1,-2
7,4,9,4,2,0,-3,-3
-1,-3,-12,-7,-5,-9,-1,-1
2,2,12,1,-11,-8,2,-3
-3,-1,-12,3,5,16,0,3
8,9,38,14,35,30,9,4
-8,-1,1,8,4,5,-10,-5
24,-3,-35,-17,-6,7,0,2
-25,-11,-37,-19,-20,-8,2,0
-3,10,11,-4,-14,-30,-1,-1
17,4,28,8,4,-9,2,4
7,-3,14,8,7,13,-4,-2
11,-6,-13,1,3,0,-1,0
-40,-6,1,0,-8,-5,-3,-12
-12,1,3,0,-6,-8,-2,3
-13,-3,-1,4,13,3,-1,0
15,5,4,2,2,15,-1,-10
8,-6,-9,-5,20,33,5,4
-8,3,-18,-11,-11,-12,3,-2
9,6,6,-4,-5,-5,3,1
-42,-10,-3,-1,-9,-33,-1,-3
26,7,13,3,-7,-19,-5,-6
-10,-7,-6,1,5,17,2,4
15,1,8,1,2,-15,-1,-1
1,-1,-2,-5,-8,5,-6,-5
-14,-12,-6,3,5,16,-5,-7
22,8,24,14,6,30,-3,-2
-16,0,-10,3,24,29,4,0
-6,0,-52,-18,-11,-24,5,6
-25,8,15,-7,-21,-22,2,-3
-10,-3,15,-2,-6,-28,1,-2
-5,3,19,8,-4,11,-4,-1
7,-7,3,6,14,24,-4,-1
21,-2,-17,-5,-5,-15,-2,1
-12,0,4,-1,0,-1,2,1
-9,-6,-10,-7,-20,-64,-5,-1
0,9,37,7,10,40,0,2
14,-10,-37,3,5,-21,-2,4
19,3,-1,-3,-6,-23,3,8
-9,-2,-4,-2,11,12,9,0
15,2,1,-4,-14,-54,-7,4
-3,4,27,2,-11,-4,-3,-5
-4,-8,-15,0,4,31,-2,-2
13,1,-6,0,-5,1,0,-1
-3,3,27,8,8,9,3,1
-15,2,24,8,-1,14,-3,-6
20,-34,-118,-27,-28,-109,-11,-8
-43,26,28,2,19,105,21,6
-13,8,19,4,7,16,11,-5
37,14,18,7,8,16,9,7
-3,1,25,10,4,2,-7,-3
5,-16,-13,-4,-17,-46,-11,-7
4,-2,-14,-4,-2,-3,-7,-9
-5,-1,-3,-2,-2,-9,0,-4
-12,5,16,0,1,11,6,7
9,-3,-9,0,-1,-4,-5,-1
-4,-1,10,-5,-3,-42,-4,-1
0,-8,-13,0,-12,5,-2,-6
19,11,-12,1,17,63,13,4
2,4,5,-5,-5,-37,-10,-14
7,-3,-2,2,4,17,9,6
8,0,-1,-7,-17,-53,-8,-2
-6,3,21,5,3,3,-4,-5
4,-4,-3,2,-1,16,1,7
3,-6,-10,-2,-4,-14,-2,-5
3,15,55,9,6,5,-2,5
7,-22,-58,4,2,-7,3,-13
-5,-6,-36,-25,-19,35,-5,-20
34,18,14,4,6,-12,7,14
-21,-6,1,4,27,93,14,1
2,12,42,7,-5,-24,-5,4
-14,-10,-3,7,-6,-29,-4,-1
8,-8,-23,-6,-8,-16,-2,-1
6,2,-7,-5,-3,-6,1,0
-14,-2,13,-4,-7,-11,-3,-6
-3,-2,-8,3,7,1,-1,4
-3,9,25,2,6,30,1,1
9,-8,-6,9,3,-24,-3,5
-37,-16,-17,-9,-2,3,-1,-2
69,14,-30,-14,-6,13,7,1
-74,3,10,0,-6,-4,14,4
8,0,7,8,19,31,6,0
-3,7,38,10,12,-1,-10,-11
-1,-9,16,8,9,15,-6,5
7,-17,-29,-10,-15,-32,-10,-8
-9,1,-17,-10,-24,-24,-1,0
-1,7,12,-2,1,3,2,6
-8,-3,0,1,3,-8,2,3
13,-2,-10,0,5,19,-2,-2
-12,-2,-8,-5,-3,-27,-2,-2
13,4,24,7,-9,-4,-2,-5
-24,-29,-76,-16,10,19,0,4
33,29,59,8,0,28,4,5
-4,-13,-58,-11,12,5,5,-7
-14,7,17,-6,-9,-15,-6,-7
-42,-6,34,11,-6,-19,-1,-5
9,-11,-12,4,0,-21,-10,-4
8,2,4,-1,-3,-13,-2,5
7,4,-5,-1,0,16,4,3
-5,3,17,2,-1,-12,-4,-1
6,-6,-21,-3,7,14,4,-1
-2,1,4,-2,-22,-18,2,-3
-5,1,7,3,5,-12,-3,1
20,9,37,12,11,7,-5,7
-4,-29,-89,-25,-11,-6,-4,-4
-6,20,18,-5,-4,-1,6,8
-18,-2,-8,-7,-5,-6,8,6
14,9,35,5,4,-8,0,4
-1,-4,18,9,2,-3,-5,-6
-7,-11,-16,-2,-4,-5,-12,-5
11,4,-5,-4,4,12,5,5
0,3,14,0,-10,-45,-1,-6
-7,6,46,11,2,52,2,-1
-8,-19,-73,-3,18,31,-10,2
20,11,-5,-7,13,19,14,-8
-15,-1,-11,-4,-4,-4,8,6
0,0,5,-5,-12,-27,1,-1
-9,1,27,2,-9,-16,-3,-2
8,-3,-7,3,2,16,-7,0
0,-5,-19,0,-1,-6,-2,-1
7,8,11,0,5,-2,0,0
-1,-6,7,0,-8,-2,-1,-8
4,-7,-14,0,2,5,1,3
4,11,41,13,-3,-46,4,0
-28,-22,-78,-21,-6,26,-7,0
38,14,-7,-8,-14,16,9,13
11,1,12,4,5,-16,5,-3
14,7,19,6,5,-1,1,3
-8,-2,13,9,4,-20,-10,1
-15,-10,-12,-2,-4,-27,-7,-10
8,-1,-3,-3,-11,11,-5,5
3,-5,-7,-2,-4,8,-3,-5
4,0,-4,2,4,-6,3,0
14,7,35,-1,-1,2,-2,-4
-6,-5,-16,-5,-7,-8,-3,1
-28,-3,5,2,-5,21,3,-6
15,4,-16,5,22,-5,1,11
-11,10,15,-1,11,46,6,0
16,5,17,3,8,-23,-3,10
-21,-5,-22,-5,-3,31,-1,-6
8,6,20,-1,-11,-10,4,-2
-11,-8,4,5,-1,-21,-3,-1
-12,-10,-22,-5,-4,-6,-4,-4
15,-1,-14,-3,2,12,-4,1
-6,10,29,-3,-15,-36,-6,-12
17,-5,-24,-2,14,13,3,1
-41,-12,-15,-8,-8,15,-2,-5
10,14,-8,-4,-4,17,7,-5
-18,2,14,9,26,3,7,0
26,8,13,-1,-9,-11,-6,-14
0,-2,10,6,-5,-4,1,4
0,-12,-13,-1,1,-2,-7,2
4,0,-5,-4,-4,8,-1,1
-9,-1,-1,-2,-3,-4,-3,4
1,3,16,3,0,1,3,2
4,-4,-12,-2,6,-5,-1,-1
3,6,15,-5,-20,-57,-7,-8
-2,-12,-36,7,37,92,17,18
-7,-1,-6,-1,-15,-29,-6,2
8,10,21,1,14,-1,3,0
-2,-7,0,1,-4,-4,0,-5
-7,3,14,-1,-11,-34,0,-6
10,3,-2,-1,5,20,-1,-1
-9,-6,-7,-3,-1,-2,-4,5
6,-2,-10,2,1,17,4,0
-5,-1,2,-2,-11,-23,-8,-7
-2,1,1,1,9,23,4,-1
6,11,48,7,-11,-30,-6,1
-3,-38,-87,-16,-10,29,-3,3
53,28,-9,-3,-9,-12,9,7
-12,3,4,0,27,34,15,-2
7,-1,4,1,-2,-5,1,1
5,10,37,10,3,30,-4,3
-5,-14,-2,-3,-12,-37,-11,-1
2,1,-2,1,-5,0,-3,1
-4,0,-4,0,6,-4,1,-3
-2,0,0,-2,2,6,1,0
-17,-4,-3,-2,-3,-10,0,-1
3,5,15,1,1,-4,-5,-7
1,-7,12,8,-4,8,-1,-4
-40,-23,-58,-8,6,-11,2,13
23,18,7,-6,0,45,6,-13
10,5,6,0,11,-12,11,8
-50,-9,-9,-8,-12,-11,-6,-5
14,9,34,13,18,28,5,-2
-19,-13,5,2,-9,-37,-10,-6
-1,-1,0,-1,-5,1,-7,-1
10,0,-19,-2,0,2,1,-1
0,7,10,-2,-6,-7,-2,-3
-23,-7,1,-3,5,-3,-1,0
12,-4,-8,-7,-17,-34,-3,-5
2,2,-5,-2,4,-1,-1,16
15,9,41,17,4,22,-4,-5
-11,-15,-53,-13,6,4,3,11
15,11,-8,-4,9,26,6,6
19,3,-18,-10,-5,3,8,0
-19,0,21,-2,-10,-39,1,-5
0,2,33,14,-2,-12,-7,0
-10,-8,-4,2,-7,-2,-6,4
-2,-4,-15,-4,5,8,-3,-8
21,9,5,-3,4,9,4,7
-21,-4,16,7,1,-11,-2,-7
-3,-12,-9,-4,-1,-4,-12,-7
8,9,-22,-2,-4,32,5,7
-24,-4,-18,-9,-22,-25,8,-2
21,11,11,10,44,13,0,1
-14,-4,8,1,0,30,3,-1
-7,-5,17,5,2,-1,-3,-7
9,-4,-9,-4,-5,-5,-10,-2
-2,-3,-1,-6,-20,-21,-2,0
0,2,7,2,-4,-4,1,0
6,-6,-6,-1,-2,3,-2,-3
-1,2,-11,-2,11,7,2,-3
-3,5,33,2,-3,-8,-2,-1
3,-7,3,6,4,-8,-2,-2
-18,-23,-79,-24,-17,-12,-3,-2
25,18,7,-6,10,50,10,5
2,6,6,3,-15,-28,7,7
6,6,22,11,32,45,4,-2
3,1,31,9,-5,-32,-3,-5
-1,-10,-10,0,1,3,-6,2
-2,-7,-13,-9,-10,1,-5,-5
-5,4,-6,-2,-17,-19,1,1
5,2,5,4,15,13,4,4
0,-2,-5,2,2,-7,0,-7
-5,7,28,5,-7,6,-1,2
-4,-2,18,5,-6,-17,-5,-4
-8,-33,-94,-23,-4,3,-10,-2
9,24,27,-6,-13,-25,16,8
-16,-4,-5,-6,-9,-15,7,11
12,9,25,11,29,75,7,-1
-18,10,43,13,7,-20,-8,-17
-7,-11,-10,5,12,7,-9,2
12,-7,-15,-5,-7,-15,-3,0
-2,-4,-19,-9,-15,-23,-1,-2
4,6,16,3,-6,-2,1,3
1,-5,-7,1,-1,-4,-4,-3
-10,-3,-2,-1,7,10,3,-4
-17,-5,11,-1,-18,-38,-4,-3
13,3,-8,11,3,6,-7,-12
2,-22,-72,-22,-9,-44,-3,6
28,23,2,2,16,59,21,4
-39,-10,-29,-14,-5,10,5,-4
10,11,51,3,-7,-21,5,5
-2,-7,16,10,1,10,-8,-7
7,-9,-18,0,-4,-22,-15,-1
7,2,-3,-3,-2,-20,2,2
-6,4,23,4,6,24,9,2
-11,-15,-48,-3,-6,-9,-10,-4
7,-2,-19,-7,3,28,-1,2
17,8,1,3,-3,-11,7,-12
-15,3,25,11,28,64,8,11
18,7,25,6,-7,-16,-1,6
-7,-7,-25,-12,-14,-24,-6,-2
-51,-9,-7,-6,-2,-4,-4,-3
23,6,1,-1,-7,-20,-1,2
-8,2,25,6,3,11,3,-8
-20,-6,4,4,9,7,-1,-5
17,2,29,9,-9,-14,-9,5
-4,-10,-52,-8,-4,-40,-5,-6
5,16,-2,-12,4,73,8,5
-23,4,10,-2,-14,-36,5,-14
8,0,-2,2,5,9,5,10
13,-6,23,7,-3,-8,-6,-6
5,-3,2,2,2,-15,-6,-7
8,-3,-6,1,1,-1,-8,-2
8,2,-7,-6,-3,-17,-1,4
-3,10,35,-3,-2,-6,3,2
-10,6,51,17,8,36,-1,-2
-21,-46,-96,-27,-26,-64,-16,-4
48,33,42,4,37,98,25,14
-9,1,-3,-1,-5,-17,10,-5
-19,8,42,9,30,24,-2,-4
-3,3,39,14,-7,-19,-8,-1
2,-21,-48,-4,-12,-29,-19,7
-1,3,-5,-9,-6,3,0,1
4,4,7,4,-6,-24,4,-2
-7,-4,-4,1,6,23,2,0
-8,-6,-28,-9,-13,-33,-7,-7
5,5,12,2,8,32,7,4
-6,-3,16,5,-7,-21,-2,-1
19,0,-11,5,11,11,3,4
-13,3,-16,-13,-8,8,-5,-8
42,12,-5,-2,-14,-10,8,13
-5,-7,-22,-7,-3,-9,11,1
4,11,45,12,11,19,-2,0
-15,-6,9,9,6,-10,-5,-4
-11,-14,-21,-5,-1,-10,-10,-4
4,1,-10,-6,-4,-3,-2,1
11,11,19,1,-1,-2,5,5
-5,-10,-17,-1,-12,-7,1,-2
-2,4,3,-2,2,-17,1,1
-5,4,59,13,2,-17,-4,12
-24,-25,-88,-10,9,24,-13,-17
50,12,-18,-11,-6,33,0,4
-20,-1,12,-2,-2,-10,8,0
8,5,8,-2,-8,-33,4,-6
6,9,47,12,16,3,6,8
-17,-13,-4,4,-7,-16,-9,-4
17,-3,-16,-3,-3,7,-9,1
-6,-3,-19,-5,-4,-1,-3,0
-11,-3,4,-3,-7,1,-1,-2
11,2,-1,1,6,-2,4,-3
-9,1,5,3,6,16,2,0
-3,-5,-25,-4,1,1,-4,-1
5,10,17,1,1,15,4,0
1,3,78,12,-2,-35,-6,5
-26,-27,-86,-14,-25,-36,-14,-3
26,18,-6,0,41,103,15,2
14,1,-18,-12,-13,-67,15,-6
-8,7,23,9,25,29,5,0
-4,-3,24,5,-8,-24,-9,-5
-2,-7,-11,-2,-16,-20,-12,-4
4,2,12,3,-10,14,0,4
-8,-3,-15,-3,-3,-11,3,-5
1,1,10,2,12,23,-2,-2
5,-6,-24,-7,-11,-16,-1,0
-2,7,21,2,8,17,3,7
-10,-8,-1,1,-9,-17,-3,-3
14,9,34,12,18,24,-5,3
-26,-28,-88,-32,-36,-68,2,-4
32,12,13,0,4,27,-9,5
-39,2,-14,-6,-10,4,15,14
13,5,27,5,6,0,2,-13
5,0,30,14,15,-3,-5,4
-14,-8,-9,-4,-13,-23,-7,-3
14,-2,-20,-4,-6,-13,-7,2
-7,5,11,0,7,32,11,3
-9,-2,-2,-2,-16,-24,-5,-4
2,0,-6,1,5,14,0,1
4,-2,5,-2,2,8,-2,-6
-8,-1,20,2,-21,-65,-4,-2
-3,-4,-18,4,11,29,-6,7
6,-3,-23,-9,-2,-19,13,-6
-2,-3,-26,-8,-9,-56,8,-1
-12,-4,0,-5,-1,12,1,-1
2,3,21,-3,-12,-26,-2,1
-7,3,29,11,6,16,-5,-2
5,-5,-15,0,0,5,-6,-4
3,-5,-19,-4,-5,-2,1,3
-2,4,19,5,2,16,2,-4
-7,-5,12,4,-2,4,7,-1
0,-14,-38,-2,8,11,-17,-1
25,15,-18,-6,7,31,13,9
-13,9,16,2,17,25,14,-10
13,-6,-2,-2,-2,-2,-7,-2
4,-2,8,0,-13,-34,-4,-2
-4,-6,1,0,2,6,-8,-1
2,-1,-1,1,-9,-7,-1,14
-11,3,1,2,-6,-21,-2,-1
1,1,8,5,15,32,7,-2
2,6,19,6,4,2,-2,4
0,-4,8,7,0,-20,-1,-13
-14,-20,-50,-16,-14,-10,-15,0
-5,-3,-43,-7,2,37,10,-9
10,22,21,2,7,-5,9,4
-30,3,22,3,16,7,6,-4
-6,-2,28,7,1,-12,-6,-7
-1,-5,5,-2,-2,-9,-8,3
-2,-10,-20,-5,-10,4,-4,-2
9,1,-1,-2,-3,8,-1,0
4,2,-1,2,3,-1,5,4
2,6,12,1,0,3,2,-1
-8,-3,-7,1,5,-4,-1,-3
16,2,22,2,-11,-37,-8,3
-10,-4,-11,-6,5,-2,-1,0
3,0,-17,0,8,52,16,16
4,-3,-11,-1,2,8,9,6
12,9,1,5,19,19,8,5
2,2,24,4,-7,-40,-8,-2
-16,-2,27,3,-7,-27,-7,0
-6,-13,-17,-4,-8,-7,-10,-5
5,-2,-14,-5,-14,2,-1,-7
1,9,10,3,6,5,6,8
1,2,1,-1,-1,-10,-4,-4
-8,-4,-6,-1,0,8,-1,-1
6,-4,-11,-4,-5,-13,-1,-3
-5,2,2,-2,7,15,3,0
-3,7,59,12,6,-3,-7,-4
-6,-21,-57,-9,-7,-11,-5,-5
-4,10,-26,-8,-16,3,3,7
32,14,1,1,6,14,22,15
-22,-2,10,2,17,-4,1,-4
-22,0,36,9,6,4,-6,-2
0,-15,-11,-1,-2,-9,-15,-1
-6,-4,-11,-4,-14,1,-7,-3
17,10,1,2,-8,-14,1,0
-11,3,24,1,4,-7,1,-5
4,-13,-38,-1,-3,-3,-1,5
1,-7,-37,-8,-9,15,4,5
-3,5,5,-15,0,-27,-8,6
30,-2,-20,2,-2,46,5,-9
-24,9,37,2,7,9,9,-2
9,-1,6,5,7,-14,-4,-2
-2,-14,-27,-4,-9,-6,-5,-4
2,5,7,-4,-5,-19,-1,3
6,-1,11,4,-4,-2,-2,-4
-16,-6,-1,0,1,-12,-9,-7
-2,13,59,14,1,4,-3,-2
4,-15,-61,-9,-3,9,-1,-3
2,-4,-27,-15,7,16,0,-5
0,13,16,-2,9,36,15,-2
-2,-1,-1,7,7,40,6,2
14,17,42,13,8,3,-1,2
-6,-14,-14,0,-7,-26,-4,4
-2,-4,-3,-4,-5,-4,-9,-1
7,1,-4,0,-5,-5,4,-1
-10,-7,-8,-6,-6,-22,-2,2
7,2,-10,-6,-4,4,-3,-7
-13,4,54,10,-7,-19,-9,-2
-11,-17,-66,1,8,25,9,-5
38,20,20,-4,17,7,5,16
-20,-2,-8,1,40,85,15,-10
-17,-5,-12,-8,-15,-20,-3,-12
6,2,11,-4,-10,-32,-7,0
-16,-5,6,-2,-20,-27,-8,-4
12,7,16,7,-1,-16,-4,6
-2,-6,-3,4,8,14,4,2
-6,-2,-17,-6,-11,-4,-3,-4
-4,1,1,-1,2,0,-1,-1
11,2,12,3,-7,-17,0,2
2,-2,22,13,10,0,0,3
5,6,-17,-4,-9,-18,-5,2
-10,-14,-55,-24,-19,-35,-11,-5
8,9,9,1,10,47,18,7
-2,2,1,1,1,-5,2,2
-16,-3,31,9,9,-5,3,0
3,-4,17,10,3,-4,-4,-4
-8,-5,-14,-5,-19,-29,-13,-5
5,0,-6,-3,-1,-5,-2,2
16,-2,-4,-6,-3,-4,2,-5
-14,2,9,5,1,10,1,-4
5,-5,-2,7,2,-19,-3,6
-2,-10,-44,-15,-13,-39,-2,-3
-8,11,15,-1,-2,62,3,0
7,2,-13,-6,-2,-9,2,-18
-4,11,34,12,19,5,12,6
-3,-2,1,3,0,9,-6,1
6,-11,-18,-7,-14,-55,-11,-3
-8,1,19,4,3,6,5,4
3,-4,0,-3,-14,-7,-8,-4
0,-1,-10,-5,0,-2,1,-4
3,-1,0,-1,2,8,4,2
2,12,52,13,17,25,3,9
-4,-19,-38,-1,-7,-30,-10,-4
-3,-14,-72,-27,-21,9,4,-1
19,20,16,1,20,24,17,8
-26,-2,0,4,9,15,9,-3
0,1,24,1,-4,-32,-12,-2
1,2,29,12,14,45,-1,-3
1,-10,-25,-6,-9,-21,-2,-6
-3,1,0,-3,-14,-18,-8,1
3,2,3,-2,-5,0,0,-3
0,3,6,7,12,27,6,0
3,-4,-8,-5,-2,-35,-2,-2
1,3,15,3,-1,10,3,8
5,-1,9,7,12,33,-5,-4
7,-11,-44,-5,6,3,3,13
-35,9,11,-4,-4,-21,3,-16
15,0,-13,-2,12,12,7,9
0,3,3,-6,-18,-23,2,-4
6,6,34,6,-4,-9,-5,-3
7,-7,-6,2,-1,-2,-8,3
-9,-4,-16,-2,-2,-7,-2,0
2,8,18,-1,2,6,0,1
-7,4,36,13,14,10,-2,0
-1,-14,-16,-1,-11,-2,-6,3
17,-17,-66,-30,-28,-60,-4,-2
-33,15,-11,-7,10,35,11,7
-2,7,10,0,2,13,8,-4
2,2,31,12,10,9,2,3
-5,-3,23,15,21,6,-7,0
9,-9,-13,-5,-20,-35,-10,-7
-9,1,-1,-3,-6,-16,-3,1
3,-2,-5,-1,2,33,1,-2
2,0,-2,4,-6,1,-2,-3
-3,-4,-12,-4,1,-9,3,4
3,5,3,1,-6,3,4,1
7,-5,-8,-7,-5,-29,-9,1
-21,-1,4,3,-5,52,6,-5
33,10,7,6,11,22,4,7
-15,3,-8,9,35,32,13,-1
12,4,3,-8,-15,-10,-9,2
-12,-1,-1,-4,-6,-38,-2,4
-6,-10,-4,-2,-10,-3,-6,-10
12,-3,1,-1,-8,0,-4,-2
1,8,26,6,7,-5,8,1
-4,10,34,16,14,23,-2,-5
-5,-48,-100,-34,-22,-17,-7,-2
32,38,75,-7,-5,-13,12,6
-8,-4,-5,-2,-9,-1,6,3
-4,-1,11,2,-8,-12,-8,13
18,14,31,17,12,-3,4,4
-30,-18,-31,4,9,-26,-9,-2
19,4,2,0,14,52,2,1
4,-2,-3,-5,-12,-43,-5,-8
-15,-6,-7,-2,-9,10,-2,0
-1,-5,-13,-3,-1,-32,-7,9
5,11,10,7,9,38,4,-1
-1,-9,-25,-3,-1,-27,-3,-18
6,15,53,5,0,3,2,11
4,-5,-19,2,-11,-11,0,-8
-22,-23,-42,-6,-1,-19,-3,2
21,7,-11,-7,3,35,13,-2
-5,10,29,-1,2,-13,0,-1
-6,3,20,4,0,18,-4,1
-18,-12,-22,-5,-18,-39,-2,-7
-2,-1,0,1,4,43,3,3
-7,9,19,9,18,12,3,0
6,-8,-19,-1,3,16,-7,-2
1,-4,-9,-1,-7,-15,3,-7
2,3,7,-4,-4,-13,-1,-3
7,0,2,3,0,0,0,3
-25,-7,-13,-3,-2,2,-2,-3
11,5,19,2,0,-2,-4,0
-6,0,24,11,8,17,4,7
-1,-18,-67,-13,-6,-16,-8,-16
30,18,17,-8,-33,-22,3,18
-14,-2,3,8,44,70,8,3
-34,-2,6,-4,-5,3,3,-5
0,-1,11,10,2,1,1,-11
0,-10,-13,-2,-10,-11,-9,-10
4,6,1,-4,-14,-30,-5,4
14,-2,-9,-1,6,-4,0,1
-20,-3,5,-2,-3,7,0,-5
1,12,48,7,-2,-11,-1,-7
4,-20,-56,-5,-21,-30,-7,-4
-16,-16,-67,-19,32,73,4,1
43,32,34,0,-2,-28,21,18
-14,-6,10,4,15,3,5,-2
11,9,39,8,-6,-23,-6,-7
-13,-10,-2,1,-15,-21,-8,-1
-11,-9,-20,-4,-7,6,-9,2
11,3,0,-2,4,6,3,0
3,-3,-5,-1,7,5,3,-5
11,6,9,3,-13,-15,-2,4
-10,-2,6,5,8,-24,-2,2
2,-18,-48,-18,-20,1,-5,-16
6,19,22,4,16,78,9,16
2,-7,-34,-3,4,-25,0,-10
1,10,30,2,9,3,-1,-9
-8,-10,-9,5,-6,-5,-1,-6
5,-3,0,-2,-9,-14,-6,-3
7,6,29,3,-4,-5,2,9
-13,-10,-15,0,-1,-1,-1,-3
2,0,-4,-2,10,30,-2,1
4,4,14,-3,-3,-13,-3,1
3,1,0,2,-9,-37,-2,0
4,-13,-26,-5,-8,3,-6,-3
-23,5,6,-2,-14,-2,7,-2
9,6,2,2,-3,-25,5,6
0,-4,2,-3,9,3,2,-11
-12,-3,0,-5,-17,-15,-5,7
5,-3,-3,2,6,1,0,6
-12,-3,0,-1,-5,0,-4,-7
5,4,6,0,-6,-15,-5,0
-2,-3,-6,-2,4,19,3,1
6,22,76,12,6,3,-2,1
2,-28,-71,2,3,-30,1,-3
-17,-8,-37,-23,-18,4,-7,1
14,15,22,-3,4,2,14,-1
-3,-1,-1,5,-3,22,4,0
8,10,38,9,10,-18,-7,6
-6,-3,12,8,3,7,3,0
-4,-11,-20,-5,-12,-14,-13,-5
12,0,-6,-2,1,-14,-5,2
-10,-7,-7,-9,-3,18,4,-5
3,2,2,3,3,5,2,4
-6,16,67,12,7,2,-5,0
-9,-39,-116,-11,-4,-18,-1,4
10,24,14,-13,-13,16,12,5
-1,10,11,2,0,-18,8,12
16,0,20,9,5,28,-3,-15
-5,1,23,11,17,6,-1,-1
-11,-13,-19,-3,-2,0,-6,-3
13,4,15,2,-5,-3,-5,0
2,-4,-15,-3,-7,-6,4,4
-6,-3,-10,-5,-1,-4,-4,-3
-2,-2,-7,-4,-2,0,1,-4
7,6,19,5,-2,5,3,-3
-16,-12,-22,-4,6,-8,-2,1
-7,0,20,8,1,-24,-6,-7
7,-7,-64,-11,21,77,5,14
-6,22,24,3,-5,-19,11,-4
2,-13,-33,-4,7,23,5,10
2,9,33,-2,-6,-18,-2,3
-16,-3,31,11,0,-18,-2,-5
9,-10,-18,-1,2,5,-10,1
-1,3,-1,-3,-3,0,1,-1
-1,-1,18,4,-1,-13,2,0
7,-9,-21,-4,-10,27,-5,-4
1,7,-7,-6,4,27,3,1
8,8,18,4,9,-6,12,-1
1,-5,-14,-3,11,22,1,-4
-13,-6,2,0,-9,-35,-8,-2
-1,-8,3,-2,-8,-11,-9,-4
1,-1,-6,1,-7,3,-2,5
3,1,-8,-3,-2,2,0,1
-10,2,25,3,-7,-42,0,0
16,7,36,8,3,-2,-4,-1
-27,-28,-94,-7,20,61,6,-1
-5,14,0,-11,-14,3,4,15
1,8,20,5,21,-10,9,-2
5,-2,14,0,-7,-13,-4,-8
-13,-1,15,-3,-11,-27,-8,0
-4,-9,-17,-4,-5,6,0,-1
-7,-3,3,1,-4,-2,-1,-2
-4,-1,-5,2,10,8,3,0
12,1,6,0,0,-8,-3,-1
2,6,9,2,-10,-3,-5,-9
-10,-6,-1,-12,-8,-3,-5,3
16,-17,-76,-6,10,47,15,8
-6,26,48,7,3,-54,-8,-19
8,-5,-8,6,19,49,3,3
-2,5,16,-1,-8,-31,-3,-11
-3,-4,4,0,-7,-9,-2,6
8,-4,-8,-4,-12,1,1,3
0,2,5,2,-3,-22,-2,-4
0,2,4,4,4,9,-3,0
-4,-7,-12,-3,3,6,-3,0
3,10,36,7,-1,-11,-3,2
-3,-10,-10,3,6,-11,-3,-3
15,-13,-56,-15,-15,-23,-5,-5
-18,17,18,-1,1,33,12,3
-5,2,4,2,8,48,3,1
-2,4,15,0,9,-14,-6,-12
9,-1,13,10,14,11,-3,1
-5,-7,-3,0,-7,-28,-9,-4
1,-3,-6,-2,-4,0,-1,6
4,-5,-12,-3,-2,12,8,3
2,3,3,0,-8,-11,0,-1
-6,-2,9,1,1,-13,-5,-7
2,2,8,-3,-11,-15,0,4
5,-11,-18,3,4,5,-4,-2
4,-7,-54,-16,-16,-16,-4,-12
3,13,19,1,17,51,13,9
6,-4,-5,-1,11,-5,6,4
6,8,24,-3,-7,-14,-5,-4
-7,0,24,8,-4,-10,0,3
2,-11,-15,2,-1,-9,-9,-2
3,-4,0,-2,-7,-6,-3,-1
-15,7,13,3,-1,-5,-1,-2
18,-6,-28,-3,-1,15,2,0
-3,0,-7,-7,-9,-22,-2,1
-5,2,-9,-2,10,12,0,-18
7,0,-2,0,4,17,8,16
-17,6,26,7,3,-2,5,0
5,-7,2,4,0,-17,-6,4
-5,-5,-14,-5,-14,-20,-6,5
-1,-4,-15,-3,-3,2,2,-2
-3,6,34,7,0,11,5,1
-10,-11,-10,-3,-12,-28,-8,-4
6,-15,-55,-16,-4,28,0,5
13,11,2,-8,-12,-3,4,3
-3,8,17,8,6,3,4,6
-4,0,14,6,14,10,1,-1
0,1,17,0,-11,-18,-6,-10
-4,-9,-29,-6,0,-5,1,3
-2,1,8,-1,2,5,-3,-5
-3,0,1,-2,-6,-14,-1,-2
1,6,36,7,10,15,2,-1
-7,-10,-28,-4,-17,-52,-6,-6
3,12,29,6,16,77,4,-3
-13,-17,-42,1,-1,9,3,-7
25,14,15,2,18,9,10,13
13,5,19,-2,1,-2,0,-9
-23,-10,-10,-5,-11,-32,-3,2
18,4,12,-2,-4,-6,-3,0
-11,-7,3,3,-11,-5,-4,-6
0,-2,-3,2,3,4,0,5
11,0,-9,-3,1,-1,-5,-1
0,6,20,0,0,7,-2,-4
-10,-6,-15,4,-8,-40,-7,3
0,-11,-37,-8,-5,3,-2,-11
-5,4,2,-4,4,4,3,-7
10,6,-2,-1,9,15,5,9
-5,2,10,2,-6,1,3,2
-8,2,15,-1,-2,-7,-8,-11
0,-3,0,2,0,-7,-1,2
5,-1,4,1,-9,-16,-1,-3
0,-2,-8,-1,2,0,-1,4
0,2,4,1,3,19,3,5
-1,-4,-8,-3,0,-8,-2,0
-1,4,13,5,3,-11,0,1
3,-9,-13,-4,-13,-20,-11,-3
-23,-6,-40,-5,13,80,9,15
26,8,7,-1,13,-11,8,-4
0,1,-5,-1,6,13,6,14
-6,-3,11,4,-5,-12,2,-10
9,5,47,8,-2,-2,-7,4
-8,-11,-38,0,-9,-17,-5,5
-9,1,-10,-8,0,32,2,-3
-23,5,-1,-2,8,2,7,0
9,2,7,3,0,-33,0,8
1,-1,13,0,-18,6,-4,0
-6,-5,-14,-1,-1,-3,-6,2
-5,-1,-13,-3,2,1,-1,11
-8,2,5,2,7,6,5,-12
-5,-4,3,-3,-6,-20,-4,0
6,-1,0,-1,-3,7,-2,-8
1,-1,-7,-4,0,12,0,2
9,2,17,4,1,-15,1,1
-7,7,24,8,6,-2,-3,-2
0,-21,-72,-7,-5,-1,-4,-10
17,15,3,-4,0,0,-2,-3
-14,3,11,1,14,21,14,4
6,-1,3,-1,15,37,1,5
-2,2,33,6,-3,-13,-4,2
-5,-13,-12,-2,-5,-8,-9,-4
4,-2,-8,-3,-17,-18,-9,-2
-1,6,25,6,2,-14,0,3
0,4,-8,-2,-5,-17,-1,-4
15,-9,-38,-12,1,43,10,1
-15,-4,2,-1,3,5,4,7
-5,4,-9,0,-1,-1,2,-3
6,4,13,6,2,-17,-4,3
1,0,6,2,-5,-16,-4,-6
4,0,-2,-3,-7,-2,-1,-6
-12,-10,-13,-5,-6,0,-1,-4
2,6,23,0,-3,-16,-3,-4
-3,-6,-17,2,-8,-27,-1,3
-3,3,-13,-3,4,37,-5,6
-1,-3,-10,-5,12,-4,1,-20
-4,7,12,0,-3,35,6,15
-3,0,15,1,5,-18,0,1
10,-3,0,-2,-17,-30,-9,-6
-18,-4,-18,-3,-8,-4,2,10
9,6,55,7,10,-1,0,-3
-12,-13,-47,-5,-8,-9,-5,-1
10,1,-14,-6,-7,8,-5,-2
21,10,13,1,15,14,8,11
-19,1,18,3,-3,-13,0,-12
17,3,5,7,5,20,2,3
-25,-3,5,-1,-2,-21,-5,-7
9,-6,-12,-1,-9,3,0,2
2,4,20,0,-6,-14,-1,2
-24,0,-9,1,2,0,-1,-3
12,1,-11,-6,-9,-10,-4,-7
-2,-2,10,-1,-12,2,2,16
6,0,-14,2,15,36,4,-13
-2,2,20,2,-4,-11,-6,-7
0,-2,0,5,19,19,2,6
-6,-1,14,-4,-21,-40,-8,-5
6,-11,-45,-5,-8,-25,9,6
-1,-1,-7,-12,-3,24,-11,-10
12,12,25,2,-10,-14,8,14
9,-6,-18,0,7,5,0,3
-10,-8,-12,-6,-9,-12,-6,-5
18,4,18,4,4,7,9,5
0,3,0,1,3,2,0,2
6,5,11,2,-4,14,-2,-9
1,-7,-12,1,1,-38,-8,-2
4,0,-8,0,6,31,1,7
-24,1,9,-2,-1,0,5,-16
13,-6,-29,-2,4,6,4,10
-5,3,3,-5,4,4,-4,0
-4,-4,15,3,-4,-16,-3,0
-1,-1,1,0,7,3,-2,-4
-7,-2,-1,0,-7,-13,-4,-1
0,5,19,3,3,9,2,2
-9,-14,-36,-3,-1,-23,-7,-1
22,3,-21,-4,6,26,7,14
2,7,2,-7,-3,-15,8,-1
-16,-6,2,0,-4,-6,-9,-24
1,11,35,6,10,19,8,11
10,-6,-6,4,-4,-22,-6,-5
-7,-7,-8,-3,7,26,-1,-2
6,5,-1,-4,-4,-6,9,12
-12,-3,-2,0,-2,-1,-5,-5
1,-1,11,3,8,25,2,5
-2,4,7,4,-3,-1,-3,-5
-2,-9,-32,-4,1,16,3,3
-1,-1,3,-6,-5,-34,-1,2
13,6,25,4,4,17,2,2
-20,-5,-8,-3,-12,-15,-4,-7
26,-8,-36,-3,31,88,0,-7
-45,8,14,-6,-8,11,16,1
13,1,3,2,-3,-20,-4,-7
3,0,16,4,6,-4,-2,-1
3,3,7,3,-13,-37,-6,1
8,-5,-12,0,5,26,-1,-1
-13,3,44,3,-13,-40,-4,-11
6,-10,-56,-7,16,66,1,-2
16,15,8,3,11,16,11,8
3,1,5,0,0,-4,3,-6
-7,-3,-2,-2,-9,-35,-9,6
2,-2,9,1,-3,-11,0,-1
-19,-1,2,-4,-9,-3,-2,7
25,3,4,2,-6,-21,-2,0
-17,-16,-23,-1,12,45,3,3
-3,6,-10,-6,-13,-22,-4,2
5,-4,-5,-4,5,1,0,11
4,6,18,2,-3,-14,4,-3
4,-8,-14,-1,-7,-13,1,-4
-6,6,31,2,4,-10,-8,1
-20,-8,-17,-3,-11,4,3,-7
34,8,9,3,14,30,-4,8
-34,-12,-34,-3,4,15,-4,-12
9,-2,6,0,3,-5,3,1
-9,7,27,5,-15,-68,-1,2
5,-6,-5,2,5,46,0,1
-5,0,-15,-3,0,-38,-7,-3
-12,0,-2,-5,-5,13,1,-7
7,-6,-1,-3,-4,-15,3,-3
-1,-3,9,3,0,6,1,3
-6,-2,-25,2,2,-6,-3,1
4,-5,-5,-2,-11,-9,2,-1
4,1,-8,-7,-3,-9,-9,-5
-6,5,14,4,-1,7,4,-5
-4,2,16,1,-4,0,4,-5
-13,-16,-35,-5,-8,-46,-8,-17
29,12,10,4,14,44,8,12
-19,-1,3,-2,3,-23,-2,-2
-9,4,18,-1,-9,1,2,1
4,0,5,2,0,-9,2,1
-5,-3,18,2,-1,-21,-13,-3
-4,-3,-19,1,2,32,1,0
36,10,-2,-9,-1,-11,3,4
-7,7,19,5,18,31,9,7
-3,-6,-11,2,-3,0,2,-20
-1,3,17,2,0,-19,-9,3
-13,-11,-28,-5,-11,14,0,6
19,9,11,5,10,31,9,0
-16,-7,-14,-3,-8,4,1,5
-2,0,12,3,4,-18,-3,-13
-7,2,-11,2,4,13,3,1
15,-7,-21,-7,-5,-20,-11,0
-29,3,16,0,9,14,5,-1
22,-1,-9,-1,-3,16,3,2
-19,-3,9,2,5,-8,0,-2
26,5,-2,-3,-9,-31,2,10
-6,-3,-6,4,22,53,-3,-4
5,-1,-9,-6,-30,-41,2,3
17,5,10,9,29,51,3,2
-22,-5,-12,5,-7,-38,-7,4
9,3,6,-3,-2,17,-2,12
-6,-12,-32,-7,-17,-38,-4,-20
8,-6,-1,-3,-16,-57,3,9
-23,0,13,-5,6,34,3,-4
16,1,10,-2,-13,-15,3,3
-6,-3,10,7,13,10,-1,3
5,-7,-24,-8,-15,-11,-6,-1
5,4,-5,-2,11,14,-6,-6
14,-5,-6,1,-6,3,3,-2
-36,-1,8,-1,0,-10,-4,-9
11,1,16,4,0,-18,-1,-8
-1,-4,-13,-4,-2,27,6,7
6,6,11,-4,-3,-39,-11,-1
0,-3,-37,-5,9,34,3,13
-21,-4,5,-4,-3,2,3,-1
-13,0,21,4,-8,-31,-6,-1
-17,-7,-34,-4,-19,-21,3,4
45,-1,-16,-4,8,9,-4,-5
32,21,23,5,-1,4,4,6
-10,-7,12,1,3,-20,-2,-3
-24,-12,-6,-1,-7,-4,-4,-5
6,2,-10,-3,-12,-47,-4,-6
8,1,-8,-1,14,71,7,-8
9,4,9,-1,-11,-43,-6,-2
-17,0,6,3,3,0,-1,0
2,0,6,3,6,43,3,7
-26,-10,0,-2,-5,-26,-6,-2
11,3,-7,0,4,-1,10,-2
-13,3,8,-2,1,20,-4,-13
-1,4,15,5,-1,-18,-3,1
-44,-16,-26,5,13,21,-1,2
8,9,15,-1,0,7,2,2
10,-11,-13,-1,4,34,2,-6
-3,13,13,-3,2,-6,4,11
18,-2,6,1,-10,-35,-6,-1
3,4,-3,5,19,85,1,-12
-9,2,0,1,-6,-33,1,3
-2,0,11,8,35,65,7,4
18,3,0,-6,-14,-42,-1,11
-3,-7,-9,-2,-1,25,-11,-28
14,5,12,0,-8,-20,1,-1
-10,-8,-6,-3,-9,-21,-1,-4
-6,0,-10,-2,2,-7,-3,0
4,9,25,1,-4,1,4,6
-5,-11,-38,-2,0,-14,-7,-1
-9,9,8,-3,-5,-24,-1,-5
13,5,7,2,12,41,3,-9
-52,-10,-10,-3,-15,-28,0,4
11,7,11,5,5,14,-2,-9
1,-7,-3,-5,-3,-1,0,3
-9,1,6,2,6,-17,1,-7
6,-1,8,-1,-24,-35,0,11
3,-2,-11,3,8,14,-2,0
0,-2,-10,5,23,70,7,0
17,4,-3,-14,-14,-17,-4,-5
2,-2,-4,-1,6,-5,0,1
-11,4,21,-4,-15,-34,0,1
1,-3,6,1,-6,-8,-4,-7
-6,-3,-6,1,-1,14,-7,-1
10,-4,-6,-1,-3,-9,2,4
-5,-1,10,3,1,-21,-6,-4
-18,-6,-2,-2,3,62,6,-6
9,-2,-16,-6,3,-5,-7,-13
-19,-1,-16,-4,7,12,5,2
-7,4,13,-3,-10,-33,3,8
-6,-17,-46,-9,-11,0,-2,-3
7,7,19,0,1,-11,2,5
10,-1,3,1,-3,11,3,5
7,-1,5,0,2,-7,0,-2
0,3,14,4,-4,-11,0,0
2,3,15,4,0,-6,-9,-3
-14,-11,-24,1,12,30,-3,-1
24,-2,-17,-8,-8,15,7,10
-21,3,0,-12,-10,-52,-5,1
5,3,13,5,4,34,9,6
3,4,20,8,5,-12,-4,8
-2,-9,-29,0,6,16,-4,-2
4,0,-3,-4,-8,-18,0,-1
-6,0,4,-2,0,-7,4,5
-3,2,6,0,3,3,-2,-12
-6,-2,13,3,14,54,1,-7
12,6,24,15,6,-25,-5,9
-1,-17,-89,-13,-15,-20,-6,1
-3,16,11,-6,10,51,20,8
-14,-2,-8,-6,-4,-22,12,-4
3,5,31,6,3,2,-6,-5
6,-2,23,9,4,3,-1,0
8,-8,-27,-2,-7,-16,-9,0
5,5,7,-2,-2,-7,-3,5
-5,-1,-4,-3,-3,8,-9,-8
-8,-3,0,-2,-4,-1,4,11
8,-3,-2,1,2,-3,-5,-4
4,8,24,13,32,66,9,8
10,-5,-14,8,6,-4,0,6
4,-6,-15,-18,-16,-19,-5,-2
-8,-12,-55,-10,-9,-25,2,2
26,13,3,-5,-8,-15,-2,2
-12,-3,2,0,-6,0,7,-5
-12,9,36,12,10,10,1,12
15,-1,17,5,-6,-5,-8,-5
-11,-9,-7,-2,-6,-16,-8,-2
12,-2,-10,-6,-3,-6,2,4
0,1,11,0,-16,-81,-7,-5
-6,2,27,13,14,85,4,1
6,-12,-30,-1,9,-8,-4,2
1,7,-7,-11,-12,-7,-2,-7
6,2,-3,-6,7,5,3,-1
12,1,8,-7,-18,-50,-1,6
-6,-2,10,3,-4,-3,-2,7
4,-10,-7,0,2,-4,-1,5
-3,0,-3,0,-1,26,3,-7
-2,3,9,2,6,-18,0,4
5,3,12,2,-9,-3,0,-6
-4,-4,-6,2,10,4,-2,6
-9,-3,4,1,-5,16,0,-5
-4,3,14,1,2,-3,-7,-38
9,-1,3,8,7,1,2,10
-30,-6,-44,-16,-15,-22,1,-7
13,8,14,-2,-1,1,10,6
-8,-6,-11,-3,4,23,-4,-1
-14,-2,-1,-1,0,-5,0,-9
11,2,25,9,1,6,-1,0
7,1,7,6,17,29,-3,-3
-9,-3,-12,-1,-13,-46,-1,6
8,3,7,0,3,-2,-6,1
6,-6,-15,-6,1,2,3,3
-13,-2,1,1,-3,2,-5,-3
6,0,4,4,3,3,-4,3
-14,-6,-21,-6,-2,-4,0,0
16,15,19,3,7,-15,3,0
-67,-6,10,-1,2,14,4,-5
22,8,-9,-4,-11,-22,-7,-8
-13,-14,-21,-7,-11,16,2,0
-15,-4,0,-3,0,-25,0,5
-16,-4,11,5,-1,16,-2,-11
-6,0,16,7,18,20,0,25
-1,-2,-6,-2,-10,-52,-1,-4
7,4,2,-1,8,82,5,-12
18,8,17,7,6,-30,0,17
-13,-4,4,-4,-6,11,-2,-3
39,-1,-21,4,3,-21,-8,-7
-42,-1,3,3,-6,8,11,6
0,-5,-18,-7,-8,6,3,-2
16,6,16,5,26,11,5,-1
10,12,26,-4,-9,-1,4,5
4,0,1,5,-6,-13,-9,-4
18,-3,-14,2,1,-6,4,7
-12,-7,-2,-9,-12,-21,0,-2
-10,-2,-2,0,2,18,-4,-1
6,-1,-4,-1,3,2,-1,6
13,3,-4,6,17,38,-1,-23
-1,-2,7,1,-8,-6,2,11
-2,-6,-22,-5,2,7,2,1
27,9,9,-5,-15,-35,-2,-4
-20,-8,-8,0,1,7,4,5
4,3,13,1,1,22,-2,-10
-3,6,15,7,13,-9,-4,2
2,-2,-2,0,-12,5,0,0
8,3,3,1,4,-5,2,4
-38,-6,-9,-2,-8,-23,-1,-1
18,-8,-17,-2,0,10,2,1
-7,-4,1,-8,-3,-24,-7,4
13,9,38,2,-17,-1,-4,-4
-3,-8,-45,0,12,17,2,3
7,10,23,4,9,36,3,-14
-13,-2,7,4,3,-1,0,2
9,-3,-7,-5,-10,-22,-2,2
7,4,23,2,-13,-28,0,7
-3,-12,-29,1,3,-5,-13,-2
-5,-14,-43,-9,3,35,0,-8
2,14,8,-5,-12,-23,2,-14
10,-3,-8,-1,3,15,9,13
-6,10,29,5,2,-2,4,9
15,-1,8,3,0,-17,-7,-1
-11,-14,-32,-2,-2,6,-5,2
7,5,5,-8,-3,1,-4,-1
-10,0,23,5,-17,-49,4,-2
-4,-7,-18,7,23,80,2,-4
55,8,7,-1,15,20,-2,7
2,0,-9,-1,-5,-13,3,-9
-6,-2,-16,-10,-5,-2,5,2
-8,11,26,-1,-9,-29,1,-3
2,-5,0,4,1,-17,-4,3
10,-3,-4,5,3,27,-2,0
-4,1,2,-2,-5,-1,-2,4
3,-2,5,2,-3,-16,-3,0
-10,-3,-12,-4,-3,-16,-2,0
-7,-5,-2,-3,-6,-3,0,-1
-15,5,25,9,2,-3,-4,1
23,3,-9,7,20,8,2,-2
-41,-12,-43,-23,-12,-22,-1,-7
19,-5,-36,-7,-5,5,6,-13
-24,1,-5,-9,-4,1,2,2
5,-2,23,0,-11,-13,1,5
3,-4,6,9,7,10,1,5
4,3,8,2,12,20,-8,-5
-1,-5,5,-2,0,-13,-5,-2
-1,0,-10,5,1,11,5,2
0,-2,-9,-1,0,40,3,5
-9,6,16,0,-15,-46,-4,0
15,-4,-20,-5,10,23,0,-1
-18,11,29,-7,-16,-36,-2,-1
9,-15,-38,5,8,-2,-2,0
-6,-4,-25,-2,2,-7,-1,5
17,11,17,3,3,31,3,-3
-10,0,7,-5,-3,-15,-1,1
-3,7,16,-3,-5,8,2,-1
-17,1,13,0,-3,-29,0,-4
11,-4,-2,4,-1,11,-3,8
-7,-12,-27,-4,-5,-4,-10,-16
-5,1,12,1,-2,-1,3,2
12,2,6,2,17,30,5,13
-4,2,11,0,-6,-14,1,-2
22,-8,-16,-4,-3,-15,1,2
9,1,-3,1,-7,-1,-6,1
6,4,12,1,3,1,-1,-4
8,3,10,2,-3,-9,0,3
-22,-11,-21,0,1,-6,0,3
2,2,1,3,11,18,-3,-15
10,3,9,-7,-9,-1,6,17
0,-3,11,-1,-2,1,-6,0
3,2,6,-1,-16,-57,-3,-1
2,-3,-19,0,5,48,5,1
-8,-3,-2,-3,5,0,-5,-9
-3,-4,-9,-3,-9,-28,1,2
-14,-2,0,-2,4,51,2,17
9,6,12,6,6,-4,6,0
-1,-3,-15,-5,-11,-23,-8,-18
-17,-1,2,0,-9,-18,4,1
-1,-2,-8,-2,1,45,-2,-8
7,3,0,4,6,-13,2,7
4,-3,-4,4,10,16,-3,-1
10,6,-4,-3,-6,-34,3,-10
-10,-1,9,-2,-14,1,-1,4
-29,-2,17,4,8,13,-1,-7
6,-5,-5,4,-3,-9,0,5
1,8,25,2,-1,0,-2,-1
1,-18,-65,-2,44,21,-5,-1
-36,7,12,-8,-17,-2,4,2
-10,-1,2,1,5,-6,-1,-3
24,8,29,-5,-19,-31,-2,-2
4,-5,-18,6,0,16,4,4
-6,-9,-11,-8,2,9,-8,-3
1,3,18,7,13,2,7,-9
-11,-9,-30,-10,-17,-10,-2,1
12,18,43,4,-7,-15,-6,-5
6,-13,-11,-5,-12,-47,0,0
-27,-7,-10,-3,-26,-40,1,-1
13,5,20,6,37,104,7,4
-12,-2,-10,4,-1,-31,1,-4
-43,-11,-12,5,-7,-5,-3,-2
-10,3,-1,-9,-13,-33,-1,7
-1,10,9,-1,4,-39,-15,-6
5,2,5,0,5,44,14,1
22,5,11,-2,2,-26,-10,8
-4,-15,-29,-3,-3,9,-2,-6
-5,1,-16,-4,-1,11,6,0
-16,-4,10,-3,-7,-9,-2,0
32,12,28,3,2,3,2,-6
13,-11,-20,-1,-2,3,-4,-2
8,-1,5,-4,-1,5,-6,0
18,7,14,2,2,4,6,0
-12,-6,-28,-3,-7,-17,-4,0
0,7,22,5,22,83,4,-9
-17,-17,-46,-8,-18,9,6,4
3,6,31,5,9,-62,1,-4
8,4,-16,-2,-3,50,-3,-3
6,8,3,-6,-15,-36,-2,5
2,-8,-18,0,3,-38,-2,-5
1,7,21,-8,-17,13,3,1
10,-6,-2,5,12,-10,-2,1
-41,2,8,8,0,-8,2,6
-9,-13,-22,-2,0,5,-4,-2
12,10,15,1,3,7,-7,-1
5,-1,4,-2,-5,1,7,2
-11,0,-11,-2,2,4,-4,8
-7,3,8,4,4,-1,4,0
-3,3,43,8,5,0,1,-1
-7,-13,-43,-2,0,8,-3,2
36,11,-3,-11,-10,-5,-3,-2
5,2,1,-3,8,17,6,-1
-39,-12,-25,-4,-2,-38,-2,-5
3,8,42,4,15,51,3,-2
1,-4,9,0,-12,-57,-11,-8
-8,-11,-31,4,11,85,-3,-1
23,4,-19,-8,-5,1,0,-10
0,12,15,0,9,-62,-2,-3
3,-3,2,1,9,37,7,3
-9,-4,11,0,-10,-44,-7,-5
10,4,9,9,0,3,-3,10
5,-11,-26,-8,-7,7,-4,-8
13,14,17,-5,-5,3,3,0
-11,-4,-22,0,-4,-1,6,0
-1,-4,-3,-3,0,4,-4,-1
4,3,12,-1,-4,-16,1,9
8,-8,-10,1,-4,-14,-5,1
3,0,-4,-5,6,39,6,-3
-26,5,-8,-1,-2,-23,3,-2
-22,1,14,9,-6,26,-2,-3
-41,-6,-2,9,33,68,0,4
24,4,1,-2,-19,-51,-6,-2
13,5,-2,1,1,16,13,6
0,-4,-3,-1,6,9,-6,-3
-10,-7,0,-2,-12,-21,4,-14
-4,18,50,10,3,-14,-7,0
7,-20,-49,-9,-19,-28,-10,1
12,-2,-17,-8,-10,-52,-1,1
-13,4,15,-4,-5,-12,6,-5
-20,-11,-19,-2,10,42,-3,3
47,16,18,-2,-19,-46,-5,-8
-8,5,36,8,6,29,2,11
9,-18,-36,3,4,3,-4,-6
-5,8,36,1,-22,-87,-1,0
11,-4,-31,0,11,89,2,4
-34,3,-3,-10,-4,-18,2,-11
32,12,23,1,-5,-6,6,8
-23,-13,-11,-3,15,-4,-1,-10
2,-3,17,3,-33,-72,-6,-6
33,5,-19,8,46,95,5,3
-21,-1,-12,-10,-20,-25,-4,-11
54,10,39,3,-10,-10,3,14
-21,-13,-15,5,6,-36,-3,3
-31,-15,-39,-19,-25,-42,-8,-5
12,9,-5,-2,12,28,15,13
2,-1,13,6,10,12,6,-8
-6,12,28,1,5,-2,-2,1
11,-2,2,6,2,32,3,8
14,1,-7,2,4,25,-7,-3
22,5,0,-1,15,-24,-3,7
-44,-13,13,-1,-16,24,5,3
18,22,34,13,10,-8,-2,1
9,-32,-59,-2,9,48,0,0
-20,11,2,-13,-33,-85,-17,4
25,-4,-2,6,46,123,22,-2
20,10,27,-12,-59,-111,-12,-5
17,7,9,21,59,75,7,10
-39,-33,-80,-17,-5,-46,-6,-25
27,17,26,-7,-3,6,2,6
-16,-9,23,3,-18,-39,7,1
-52,5,56,12,-1,-41,-11,-2
4,-21,-78,-8,-2,53,-6,-2
0,9,-10,-8,-4,-33,3,1
28,9,23,6,22,56,5,1
-3,5,23,1,-13,-48,-4,6
-18,5,41,14,6,39,1,-7
-17,-22,-60,-11,-8,-10,-22,-3
16,-7,-60,-11,-5,45,23,5
17,18,22,0,6,-13,-6,19
-41,4,23,10,14,-25,9,-15
14,2,35,8,11,39,3,10
-13,-11,-18,0,-14,-42,-3,-1
17,-2,-16,-15,-20,-41,-7,-13
-1,9,12,6,3,40,8,16
3,3,-7,2,21,25,10,13
-59,4,24,3,2,-32,-1,6
6,-17,-34,-3,-20,-18,-2,11
10,11,-3,-6,-7,3,-10,-9
10,-13,-45,-5,7,-27,0,-19
18,13,18,1,11,60,8,7
18,-2,31,2,-11,-39,-9,-25
-5,-11,-29,-7,-13,4,3,4
-4,12,20,1,-18,-39,-8,-8
13,-7,0,-3,4,11,-5,8
-10,1,4,-1,-12,-30,2,-11
13,6,17,7,15,58,10,9
-6,-12,-20,-10,-6,13,-7,-11
31,-1,-13,8,19,-20,0,2
-30,-10,-4,-9,-18,-30,1,0
23,10,12,-2,5,60,-5,-1
6,1,-9,-5,-25,-98,-8,5
6,-5,-6,-4,-6,-7,5,-10
-34,-3,-31,-6,16,48,-2,-15
-14,-11,9,-3,-10,-40,6,8
29,13,34,15,7,-6,2,1
-22,-12,-32,-9,-14,-8,-11,-13
-1,-1,-4,1,1,-12,2,14
21,7,-2,-8,5,40,4,1
4,6,16,4,-2,-4,0,1
-11,0,17,6,1,-39,6,-2
25,10,9,2,9,65,1,3
1,-10,-20,4,1,-102,-5,-1
-10,-9,-6,-1,30,127,6,0
-4,11,11,5,22,36,8,-1
-1,-2,-1,-1,-14,-55,-6,-1
4,5,0,5,2,35,14,-3
-50,-1,26,-1,-17,-111,-7,6
30,-1,-11,2,13,81,-14,-5
-29,-8,-9,-8,-6,40,4,-3
7,2,-10,1,14,24,4,0
-10,0,7,-1,-7,-23,7,0
16,-4,-10,2,0,-8,4,9
-35,14,17,-3,1,0,-3,-4
4,-8,1,-1,-7,-10,-3,1
6,1,-12,-4,6,34,-9,-15
-25,-6,4,-8,-27,-72,-4,0
51,15,19,16,21,41,1,7
-75,-18,-26,0,13,15,-1,-1
4,-5,-19,-4,-19,-24,-2,1
9,2,7,2,24,10,-5,-2
-3,-6,2,-3,-23,-27,4,-3
-6,5,15,1,-1,-14,-8,4
38,9,16,1,-4,11,1,14
-10,-4,-3,0,3,19,8,2
12,-2,-8,0,8,2,-2,2
4,0,10,3,-7,-9,-4,-11
-11,-3,-14,-4,-5,-16,4,0
-4,-3,-12,-10,-17,-2,1,-9
40,9,8,4,21,34,4,14
43,11,17,5,2,0,6,1
-29,-12,-14,9,15,5,-3,-8
-13,-11,-17,-8,-14,-2,-2,2
10,8,34,1,-11,-20,-1,-3
11,-9,-21,1,10,26,6,5
-9,2,12,-3,-10,21,-16,-5
14,7,1,2,15,45,13,13
-1,-1,-14,-3,-12,-21,-3,-10
-7,7,16,4,-1,3,3,13
3,-15,-17,-5,-3,-40,1,2
-3,-1,4,0,1,7,4,4
-33,-3,-7,-2,-1,-23,-6,-16
7,7,20,-1,-7,-40,-6,3
14,-7,-19,0,-19,-10,-2,-1
6,-1,-33,-9,12,32,-8,1
-6,1,6,-5,16,56,17,6
-39,-4,30,2,-5,-22,-4,-12
-5,-6,3,5,-2,-25,-4,-10
9,-3,-8,-3,-19,-63,-11,-6
6,2,-9,-3,-8,-7,5,8
-3,-2,0,-2,3,18,-7,-5
1,7,5,3,11,25,6,2
0,-5,-2,0,-3,-19,-3,-2
11,-8,-16,-1,-7,-3,-5,2
15,7,5,6,26,71,14,6
-11,1,-9,-2,17,-7,4,-7
6,5,9,1,-10,-30,-2,6
-1,-8,9,-1,-9,-8,3,-1
7,-2,5,-2,-22,-101,-2,1
5,-15,-52,-4,32,127,0,-1
-25,21,37,1,-3,-43,6,-2
-8,-11,-24,-4,-9,-28,0,2
-26,-1,5,-1,-4,-20,-7,-9
22,8,26,4,4,-7,1,0
-14,-15,-10,-3,-11,-7,-5,-3
-14,7,24,7,0,-14,-7,-9
22,-10,-45,-5,3,78,9,18
-7,3,-3,-6,2,-52,-4,-4
13,9,20,5,9,49,6,-7
-10,1,4,8,3,-37,-3,-5
40,6,26,9,2,30,-10,-8
-11,-10,-14,-4,-3,15,3,19
47,7,-8,-4,9,-3,7,-1
-26,0,0,-2,-8,-3,0,11
-2,-8,-23,-10,-7,-17,-8,-6
-13,7,26,2,1,-4,1,-8
-7,-2,21,3,-9,-24,-9,3
19,-7,-26,-2,2,6,-5,-28
-8,3,4,-3,-3,-9,-8,-3
-1,-1,-5,5,-3,-1,13,13
-7,1,2,0,0,10,3,11
7,-1,-1,1,1,-31,-1,1
-1,7,7,0,5,41,5,-2
-30,-1,32,7,2,-11,-4,-7
-24,-20,-35,-4,-13,-28,-13,-8
12,14,-10,-12,-5,9,5,7
4,9,7,-4,-6,2,4,4
5,-2,1,3,-7,-46,1,0
-11,-3,1,6,14,46,-3,3
-14,-13,0,-3,0,9,-3,3
12,10,46,9,-12,-66,0,4
49,-10,-59,-2,12,19,-5,-18
-45,7,17,1,16,-1,-2,3
22,0,-4,-3,1,30,15,-2
-7,-3,-4,-1,-2,-7,0,2
5,6,32,1,-11,-20,-2,8
-4,-8,-12,3,1,0,-9,-12
8,2,-4,1,6,13,-6,7
-15,-1,-4,2,-1,1,12,1
-31,2,28,-6,-28,-78,-9,2
46,-27,-90,-7,25,97,3,-15
-27,27,25,0,-18,-31,4,9
10,-9,-22,-5,12,-21,-4,-5
6,11,17,-2,0,-1,2,-9
2,4,33,2,-21,-56,-6,2
8,-16,-12,4,-1,11,-5,-3
-15,-9,-23,-3,4,30,-3,-4
-4,7,10,-4,-3,17,1,1
-4,15,56,13,-2,-31,-3,7
-14,-18,-34,4,20,84,0,-21
1,-23,-82,-28,-23,-16,-8,-6
8,25,34,-1,22,32,18,15
11,-5,-5,-2,-10,-7,2,-3
10,6,33,5,-2,-48,-7,3
-4,0,8,7,-2,19,-5,0
8,-11,-27,-5,-12,7,-4,-6
-6,11,22,0,2,-21,2,-7
1,-3,2,3,3,10,3,9
-4,-4,-8,-2,-8,-27,-4,-8
-7,-3,-5,-4,-5,-10,1,10
-23,-10,7,5,-1,22,2,-1
-11,5,28,16,25,25,-9,-1
40,4,-55,-17,-1,-2,6,8
-26,-7,-29,-11,-4,18,10,6
-7,17,13,-12,-21,-39,8,-1
5,-26,-39,-17,-19,-7,2,-1
-3,15,58,18,15,-3,-3,4
6,-3,5,10,1,3,-12,-3
11,-7,-16,-3,-5,-8,-6,-4
-9,5,4,-1,4,-3,2,4
-10,1,5,-3,-5,-25,-2,-5
5,-1,12,-1,-15,61,2,-5
-1,-2,-12,18,43,55,6,4
-7,0,-9,-8,14,-29,-12,-2
21,-3,-21,-4,-5,-23,-2,-8
22,13,13,-4,-7,-9,4,-1
-6,-2,-2,-2,-18,-27,1,3
18,-6,-6,1,-3,-1,-1,3
-7,-2,9,3,-3,7,1,1
-6,-1,5,3,13,2,-4,-6
5,7,10,0,1,-4,-4,9
-1,0,-7,-5,-5,-15,4,6
-21,-2,48,7,-33,-57,-4,-4
3,-19,-44,7,30,80,-8,5
-35,-3,-66,-23,-24,-25,7,12
48,14,14,-7,1,-31,15,-3
-20,8,22,5,4,-5,4,11
-12,1,34,7,-13,-28,-4,-6
-4,-13,3,3,-8,-19,-7,-11
4,0,2,2,-3,12,-7,-4
10,5,11,3,8,23,2,1
-37,-14,-21,-3,1,-38,-3,-6
36,-2,-19,-10,-3,6,-1,1
-3,10,54,1,-30,-67,5,-3
-7,-10,-38,0,45,103,3,-8
17,14,3,-5,-7,7,0,3
17,6,23,13,15,-15,9,1
-7,-2,9,6,5,-9,-8,-3
3,-4,4,4,-3,-20,-1,8
-11,-5,-2,-4,1,-6,-2,-8
10,4,13,-3,-11,-1,-6,-1
-18,-7,-17,0,-3,15,-2,1
6,-2,-18,-8,4,29,5,-5
6,14,27,-2,-11,-69,-4,0
3,-10,-5,6,-3,69,8,8
1,-6,-29,-1,55,65,4,-12
6,24,15,0,-10,-41,5,8
-8,-7,5,-2,5,-14,2,4
-30,-2,13,-2,-20,-73,-10,-9
30,-4,10,3,-13,7,0,8
-10,-12,-22,3,6,24,-4,-5
10,-8,-37,-7,-5,-7,4,-1
4,-1,-17,-7,6,-73,-1,4
-6,0,-14,-1,-3,87,-1,-3
-25,-1,15,-2,0,15,1,-11
6,3,14,7,-8,-34,4,10
5,5,13,6,26,37,-10,-10
0,3,9,3,-3,5,8,4
-1,-12,-22,-2,-15,-38,-6,-3
-2,0,-3,-1,6,23,2,-3
5,1,-6,-13,-20,-60,-2,-1
9,10,9,9,18,37,4,12
-1,-8,3,3,7,5,3,14
-10,7,32,4,-4,-9,-4,-9
16,-10,-24,1,-10,-48,-2,-1
-15,-15,-54,-15,-8,1,-11,-6
34,10,-12,-13,9,68,15,0
-1,-3,-2,-4,-5,-31,-1,5
-29,2,41,10,7,30,-4,-21
-6,-7,6,6,-12,-46,-7,4
-3,-4,-2,-2,-7,0,-4,-9
26,-2,-21,3,8,18,-3,4
-16,-1,0,-2,0,-2,-6,-16
-22,-6,-6,0,-2,-47,9,7
-8,1,14,6,29,77,4,3
27,8,4,0,-9,-24,-4,3
-29,7,0,0,-8,-45,1,-5
24,-3,-13,0,23,68,1,-1
-6,-2,0,-2,-14,-45,1,12
-24,-12,-2,1,-1,7,-5,-9
19,7,5,4,5,14,5,8
7,18,4,-6,-13,-42,1,-7
2,-10,4,-14,-21,-48,-10,1
-4,-17,-39,2,13,74,9,-1
15,8,37,-2,-6,-2,-1,8
-20,-15,-33,-6,-15,-21,-3,-4
21,16,30,10,10,25,2,2
-16,-3,-8,-2,8,-51,-1,-17
-1,4,18,6,-1,53,-1,2
6,0,5,1,4,5,-5,-6
-21,-6,-25,-2,2,-14,-7,-11
-6,0,11,-7,-10,-8,-1,3
6,-10,-13,0,6,16,6,5
0,7,22,2,-21,-51,-3,2
7,3,-11,4,10,7,1,-7
20,10,9,-1,3,20,7,14
-28,-24,-66,-17,-4,-3,-6,-12
-1,7,23,2,-4,-17,-3,5
6,-2,11,1,-8,-24,8,-4
13,9,33,11,-5,-14,2,1
1,-9,-21,10,37,42,-7,-2
1,7,-34,-18,-17,41,-3,-15
10,8,8,2,-2,-22,16,16
2,5,20,-1,-5,-6,-5,-4
-9,-7,5,3,-12,-26,-6,-6
-5,-12,-5,5,7,-33,-1,-2
-6,-1,-3,1,7,31,-7,0
-19,-7,-9,-7,-17,-11,-1,-6
21,15,32,3,8,-7,5,14
1,-11,-20,-3,-18,-18,-4,6
-18,3,-4,5,18,18,-1,-8
-7,1,29,10,8,11,-5,-3
34,-6,-63,-15,-17,22,-6,-11
8,10,7,-6,10,13,7,12
-17,-10,10,-2,-16,-17,2,-3
-5,2,15,6,1,-13,-5,4
4,4,10,-3,-1,-9,1,2
-17,-12,-21,-2,-14,-35,-1,-4
6,-4,-12,-3,-2,33,3,14
10,4,-6,-1,11,-7,-5,-13
-12,11,31,5,3,10,1,6
2,-5,3,3,-12,-47,-1,1
-4,12,-3,13,62,99,9,2
57,-7,-33,-15,-19,-40,1,-6
-32,-3,10,-6,-13,-17,2,-2
-3,-7,16,4,3,10,5,-4
-1,0,15,6,-23,-64,-19,-11
2,-8,-44,-13,-11,-23,-3,3
3,8,8,-1,13,48,10,2
-8,7,14,7,16,52,6,-5
11,-6,3,-6,-23,-37,0,-3
-18,-3,-6,0,6,-8,-7,4
-6,-6,1,-2,-2,1,-2,5
16,19,43,2,-6,-7,-6,-5
-48,-28,-50,-8,-20,-56,-10,-3
-5,14,1,6,46,97,21,6
5,1,5,-2,-12,-28,5,4
7,1,15,-3,12,8,2,0
6,0,4,-4,-18,-34,-7,-7
-18,-7,-5,-26,-13,-9,-1,1
2,-2,-19,16,7,16,-3,6
-3,2,9,14,1,-8,2,0
4,-6,-5,3,-1,-10,-1,-1
-16,-2,16,-19,-3,1,0,2
10,-4,-46,-6,-2,0,1,0
-8,-3,33,17,0,-7,1,1
3,2,0,-14,0,-8,-3,-1
-4,-1,4,-6,-3,12,-1,-1
1,1,5,-20,-4,-16,1,-4
-6,-5,-18,-5,-1,3,-5,2
8,3,4,5,7,6,6,1
-4,0,-3,4,-6,-5,-1,-5
-8,-1,10,2,-16,-28,5,1
-10,-7,-16,3,2,26,-5,-14
7,5,13,3,26,50,5,0
-5,-5,-21,4,-10,-23,3,25
12,10,37,16,2,-2,-9,-19
5,-6,-6,-3,10,8,3,14
-7,-5,-52,-25,-26,-27,-5,-5
-12,14,27,18,2,22,8,-2
12,-5,-3,3,15,7,7,8
-8,16,69,-8,-18,-29,-10,-12
24,-22,-44,15,26,58,-8,-2
-5,-25,-21,5,-8,-10,-10,-6
-6,7,-41,-29,-29,-28,6,9
30,39,20,18,51,86,16,-21
-10,6,27,10,2,-24,8,5
14,0,24,10,0,-89,-10,-10
-29,-15,44,9,-8,-25,-8,5
2,-34,-95,-3,47,89,-11,20
6,43,41,-7,-15,-91,13,15
-70,-17,-16,0,6,-43,23,-6
-6,-4,80,-4,-79,-98,-15,-7
-8,2,-62,24,33,16,-22,-11
70,-8,-95,-35,-65,-72,-10,13
5,23,31,-2,-14,-53,17,13
-10,-11,-3,2,12,-42,2,-1
-36,-5,100,4,-49,-82,-4,1
6,-33,-30,18,-17,6,-5,2
-33,-4,-83,-18,69,94,-10,-23
22,26,18,-16,-17,-13,21,18
-1,-14,-12,-36,-6,-18,4,7
-30,-5,70,57,-2,-19,-8,-9
32,4,38,-4,-73,-65,-23,-8
-23,10,-122,9,127,127,29,3
36,30,14,-17,-36,-128,17,-2
-35,-11,13,-15,13,-42,1,-7
1,-12,17,9,-19,-25,-11,9
21,-13,-2,5,-37,-46,-18,-18
4,-2,-19,-6,25,67,8,5
-10,6,20,2,31,12,0,-3
20,-1,-8,9,13,40,-3,11
6,5,8,-5,-11,-5,-1,-6
-24,-10,8,-3,-66,-128,-5,7
1,3,-4,4,34,101,3,-6
17,8,-10,-2,2,-47,0,8
-7,-6,-7,-15,-4,-34,2,5
-14,-11,47,18,-6,-33,-3,2
-6,-10,-36,7,-13,-25,-7,-8
-23,3,-45,-39,-34,-3,1,-3
14,16,38,-7,11,24,16,5
-7,-15,-19,-24,-8,16,-11,-10
0,9,50,27,1,1,-4,1
-2,-12,0,35,19,21,-2,-3
-9,-8,-12,-2,-17,-21,-14,-5
1,2,-13,-6,-5,-21,6,1
11,9,6,-15,16,64,6,14
7,2,1,3,9,-10,-4,-33
1,-6,4,8,13,10,-6,7
6,-5,-25,-12,-41,-70,3,9
-4,7,14,2,45,51,14,-3
5,-3,4,4,-9,-19,-3,-18
16,3,5,9,6,-1,-5,9
-19,-2,-7,5,4,-11,1,-4
-10,2,20,-12,-32,-55,0,-1
2,-29,-70,-25,2,32,-1,0
12,12,-28,-4,-3,-9,3,5
18,6,-10,-3,4,31,12,2
-10,-2,20,-13,-2,-21,-2,-6
14,10,46,11,17,20,-2,9
-17,-22,4,67,-8,-5,-15,-8
11,-4,-22,-32,-45,-76,-7,6
-6,19,18,23,73,89,19,1
-4,-3,-13,-15,-1,-111,-5,-18
-3,-3,-4,-10,-3,-59,1,1
4,5,10,16,16,2,-3,-6
1,-11,-7,-23,-55,-103,-13,-8
2,2,8,2,-4,40,12,9
-15,-4,5,-2,14,40,-7,-13
4,1,-3,2,10,29,-5,-2
-6,-3,-19,-29,-27,-27,-7,-6
2,6,19,3,7,39,12,14
6,9,48,25,7,7,-4,-7
0,-24,-83,-10,5,17,-7,1
-10,21,-5,-8,-36,-64,4,6
31,19,35,19,57,114,20,11
5,-13,0,-20,-8,-24,-5,-3
0,3,32,12,7,-8,-6,-2
-4,-20,-34,-1,-18,-31,-2,0
4,13,12,7,24,58,4,6
7,5,-2,-7,3,6,4,5
-5,-5,2,9,18,41,4,-20
1,-5,6,-6,-21,-58,-10,-6
-5,-3,14,2,-21,-36,-3,12
1,-7,-18,-3,8,33,7,-4
-7,3,1,2,5,-13,-4,-3
1,-1,6,-6,-2,14,-3,-9
-3,-5,-9,3,-12,-20,-3,-1
-6,1,2,-31,0,8,3,1
-8,-3,-13,22,-2,0,-1,1
14,-9,-7,-4,-7,-9,-4,1
25,35,92,13,-37,-90,-2,7
-83,-47,-97,-8,64,89,-2,-19
51,30,14,-35,-25,-56,7,13
13,-6,8,5,13,2,10,-3
-4,-9,2,-4,-22,-48,-12,-8
9,7,38,3,-26,-34,-7,4
-12,-10,-8,12,17,49,-1,11
6,4,-12,-2,-14,-55,-6,6
-45,-19,-16,-7,-13,22,-10,-16
36,18,33,16,5,2,1,5
1,-7,-45,-3,17,6,-1,8
-8,12,23,2,-2,-22,4,10
1,-5,-18,-10,-9,-21,-1,-4
-11,-7,-4,-3,-12,-17,-5,1
1,4,27,6,0,23,4,-3
-8,-1,5,0,2,12,-3,-6
-4,-7,-24,3,15,14,0,2
17,10,4,-3,-7,0,6,2
-13,-4,16,-2,-10,-2,-2,-8
-3,-4,-17,-26,5,19,1,7
5,2,14,40,-4,-44,-6,-3
9,1,22,6,7,-8,-3,-2
-30,-16,-49,-17,9,49,-4,3
57,23,26,3,-5,12,9,-2
-34,-1,-19,-24,4,-3,18,4
16,3,6,-1,-21,-47,-9,0
-8,-10,16,11,9,-5,-1,-1
-3,-7,-5,0,4,21,-5,-3
5,-1,-5,0,-3,-5,-2,4
-6,1,-5,3,1,-2,2,-5
-8,-6,1,-4,0,-3,2,-1
-6,4,12,10,-14,11,-4,-6
9,-2,-3,20,24,24,1,4
-8,-15,-26,-12,17,-41,-3,1
-6,7,10,-5,5,43,4,-5
20,10,1,-4,-11,-28,-2,0
-31,-5,-13,-10,-10,8,6,-2
14,-3,-9,-6,-12,9,-4,-13
10,4,21,7,0,-33,2,8
-16,-5,5,11,13,11,0,0
20,2,-2,-4,5,16,-3,11
-11,2,6,0,-12,-3,3,3
0,-7,-9,1,-15,-32,-3,0
-6,-2,-23,-3,9,64,-8,2
12,2,0,-3,8,-1,4,-4
-4,3,7,1,8,-8,-2,-6
2,0,12,5,-7,-25,1,3
-8,-9,-8,-1,-1,-4,2,0
0,-6,-15,-9,-11,-11,-10,-3
4,6,3,1,-4,10,4,2
-25,1,21,4,4,3,-1,-6
-9,0,37,13,10,-2,-2,-7
30,-3,-35,-9,-9,-2,-5,5
-35,-10,-57,-31,-18,-15,0,-1
10,16,23,6,-4,17,6,6
-2,-5,2,-1,2,19,14,3
1,4,35,13,15,-19,-4,9
9,2,19,8,4,19,-4,-6
2,-6,-21,-7,0,-6,-4,0
-14,-2,-4,0,-2,-39,-6,-4
1,-2,-3,-4,-3,46,2,-2
6,-1,-11,0,-4,1,-1,10
3,4,16,-1,2,-19,-4,-5
3,-1,27,12,3,12,7,2
-21,-12,-49,-12,-12,-23,-5,-5
22,14,-6,-8,5,51,12,7
23,9,12,8,16,20,6,-2
-12,-6,-6,-5,-7,-24,-7,-5
-8,-3,16,12,-3,-14,0,2
-15,-6,12,5,-1,1,2,-1
-5,-4,-13,-9,-17,-16,-1,0
8,-1,-21,-3,6,4,-4,1
-5,0,3,-3,4,12,-1,0
6,4,8,0,-20,-37,-3,-5
3,-1,17,1,-14,-45,-7,-2
-17,-10,-35,17,48,79,-1,-7
27,4,-8,-17,-14,-31,-1,-3
42,8,-14,-1,2,6,15,10
-25,4,6,-5,-13,-18,-3,-2
-12,-3,13,0,-11,-28,-4,-1
-1,-4,10,3,4,2,-3,1
1,-6,6,6,2,-2,-6,5
0,-3,-12,1,5,17,3,1
11,2,-12,-7,-5,-19,-4,3
-6,-1,-1,-19,-5,-15,3,-5
-8,3,5,25,-14,-20,0,6
-1,1,19,13,34,84,0,6
5,-5,-10,2,27,13,-8,2
-3,-5,-58,-34,-16,-14,0,2
-5,16,21,-2,-11,-13,10,-8
5,-6,-6,-9,-9,-36,0,-5
8,3,16,4,-10,-11,4,2
-1,-3,12,7,4,10,-6,-5
2,-4,-5,-2,2,0,-3,6
2,0,-10,6,3,19,1,-4
-7,1,0,-8,-9,-20,-2,-2
-6,0,2,8,11,9,2,-6
-16,-6,-1,-3,-16,3,-2,-4
5,1,-3,1,-1,-8,-1,-2
-3,4,14,6,7,-13,-1,-3
3,7,37,24,15,32,10,7
-10,-16,-25,-8,14,-23,-13,0
7,-6,-55,-22,-11,24,2,8
5,0,-18,-11,-29,-38,-1,-1
-25,10,29,10,2,-1,8,-2
8,2,26,2,4,-1,-2,-1
-11,-8,4,3,-2,-11,-6,-6
8,-1,-10,1,-4,2,0,1
5,-4,0,3,3,0,-4,-1
-14,-5,-6,-7,-6,-36,-3,-4
2,-1,10,2,-15,10,3,1
6,8,18,19,27,38,6,22
-9,-17,-53,-18,8,-10,-14,-15
33,10,5,0,6,20,2,3
-29,0,-25,-4,6,11,13,-7
0,-1,5,-8,-21,-35,-3,1
1,2,19,5,-9,-5,-1,-6
-6,-3,-5,3,3,-7,-9,-5
7,1,14,5,7,-3,-2,4
-11,-4,-5,-6,-4,15,4,-8
12,2,-13,1,-6,-5,0,1
-5,1,3,2,5,22,5,-2
2,0,11,4,5,0,-3,-3
-7,-3,-12,-9,-1,-5,0,-7
8,-1,15,-11,-12,13,1,12
-21,-8,-27,14,-16,-21,-6,3
21,-8,-50,10,9,-5,0,6
15,25,11,-5,2,24,13,0
-34,2,14,-3,6,1,4,-4
-18,-8,22,-7,-3,5,-10,-4
5,-9,-1,-2,-15,-36,-12,2
7,-7,-12,3,-7,-7,-2,-2
10,6,10,3,-2,0,3,1
-4,1,2,-1,6,10,4,2
-4,2,6,0,5,-4,-3,-9
-4,-3,-1,-2,-5,-3,-2,-3
-5,-3,0,2,10,2,1,-5
5,-2,-10,-7,-21,-29,1,-3
4,5,13,0,-6,-7,-1,-7
-5,9,42,12,16,32,-2,-11
-9,-22,-39,5,-2,-26,-11,7
26,-7,-54,-17,15,12,2,-6
3,19,26,-16,-16,-25,10,3
-16,-11,-8,-3,-19,-21,-2,1
10,7,26,12,-2,-17,-7,-4
-9,-1,17,3,5,9,-2,0
0,-4,-5,-2,1,14,-4,-1
3,-3,-11,-3,-2,-19,0,3
5,4,0,2,8,27,1,1
-2,3,12,-7,4,13,3,2
0,3,15,11,-16,-31,-1,5
-34,-17,-6,31,30,44,-6,-12
50,1,-46,-12,6,-6,-3,-1
-34,16,25,-4,-2,12,14,-3
18,3,15,-6,9,23,2,2
10,-3,7,-8,-22,-33,-2,4
-16,-5,11,9,-1,8,-4,-6
15,-3,2,4,4,-6,-6,-2
-10,-3,-1,1,1,8,-1,0
-6,-3,-15,-9,2,-5,-3,2
9,3,1,-3,0,9,2,2
4,11,17,-2,-23,-40,-1,3
-14,-6,9,11,12,-15,-3,-5
4,-6,-26,6,34,67,0,8
21,2,-24,-19,-16,-33,-6,-17
-33,3,13,-3,-1,3,9,2
-14,-1,-9,-6,-12,-28,-4,-6
13,-3,2,-9,-20,-49,-4,0
-15,-3,17,10,2,19,4,1
10,-6,-7,2,11,19,-3,-1
5,-2,-2,-2,9,17,-2,-1
2,3,-2,-5,-6,-3,0,0
-10,1,6,0,-1,12,6,6
11,-2,-5,2,1,10,-4,1
-3,-5,-8,-3,11,16,0,2
0,1,-3,-8,-11,-11,-1,-2
-5,6,20,3,-26,-18,8,4
1,-1,34,18,25,2,-8,0
-5,-23,-63,2,22,61,4,5
18,3,-25,-22,-10,-15,3,5
-5,11,5,-8,4,30,8,0
0,3,9,-1,-14,-11,-1,-13
4,1,22,5,-2,-8,-4,6
0,-7,-4,2,-3,-18,-3,-3
7,-2,-1,4,4,0,-3,9
1,-1,-8,2,5,15,1,-1
-4,1,-1,-5,-2,-4,-2,-6
-3,-1,-2,-4,-7,-5,-2,-1
-8,-3,3,-5,-13,-9,2,1
-2,0,-3,4,-6,-21,-5,-1
1,6,28,12,15,6,7,8
-4,-3,-3,3,14,27,-7,-27
7,-15,-54,-9,0,15,-2,-3
-1,11,-25,-19,-16,-15,6,3
12,6,10,-10,-18,8,10,4
2,2,33,8,-4,-28,-2,0
-3,0,19,8,11,3,-2,2
1,-11,-14,4,4,15,-7,-4
5,1,-5,-7,-5,-20,-6,-5
-8,3,-1,-6,-6,11,3,5
-6,0,6,20,-3,-16,-3,-1
6,1,4,3,14,15,3,-3
4,3,12,9,16,5,0,1
-11,3,-4,-8,-4,32,-2,2
1,2,-5,-8,-10,-13,-3,-2
-2,-4,-21,-7,-4,0,3,-3
3,-3,-3,-4,-6,-2,2,-5
-19,1,22,-5,-18,-68,-6,-3
18,13,61,18,12,19,-1,-1
-14,-18,-66,8,17,99,8,10
10,4,-13,-12,6,-23,-8,-10
3,5,5,1,-2,-20,7,7
14,0,14,-4,-6,-33,-2,-4
-12,1,22,0,-10,-27,-6,-4
-3,-4,-9,0,-9,22,-3,8
6,-4,-12,2,1,0,1,-3
5,-1,-8,-3,9,-5,1,2
19,6,42,3,-1,-1,-3,5
-30,-10,-25,-2,-5,-41,-4,-7
8,3,-33,-12,-4,49,0,8
-3,12,15,-9,-10,2,10,-3
3,-8,-13,21,29,24,2,3
-8,6,34,11,3,-13,-7,-10
-8,-9,4,4,-4,-11,-2,-17
-7,-7,-22,-7,1,2,-2,5
-6,4,11,-12,-14,-15,6,3
-1,-3,7,2,-6,-5,-4,-4
10,-11,-6,7,8,6,1,12
-7,-8,-12,-5,-15,-21,-5,-7
-21,9,-23,-16,7,42,0,-6
14,13,5,6,28,84,27,5
-13,-6,4,5,9,0,-3,2
-1,-3,12,11,19,-12,-3,13
5,-12,0,-1,-24,-63,-8,-7
8,7,12,-4,-14,-9,-14,0
11,6,7,6,7,10,6,3
-33,-14,-48,-6,-16,-78,1,1
20,0,-15,-7,11,72,1,0
22,12,10,-2,5,5,2,21
-12,-5,20,2,3,-31,2,-6
3,6,11,8,2,3,-4,0
6,4,9,-2,-10,-13,4,1
-5,-1,-8,-5,-10,4,2,-4
31,-2,-7,-2,9,-8,-2,3
11,8,32,1,-6,-7,-4,5
13,-13,-9,-1,-10,-30,-9,-3
-64,-16,-63,-16,-9,15,9,-8
52,16,4,3,19,2,6,41
-30,4,8,-6,-6,-2,-13,-31
7,-2,20,13,-6,-37,3,7
5,-16,-24,-10,-16,-10,-17,-25
-38,3,-9,-6,-21,-23,-3,-6
8,7,5,7,30,32,11,3
-3,0,11,0,-7,0,-2,9
-2,-5,1,5,-1,-52,-4,5
-10,1,-2,-8,-1,11,-4,-18
12,-2,6,11,36,83,9,12
-12,-4,-20,-8,-19,-69,-5,-11
19,-4,-13,-4,-7,3,6,8
-24,1,20,0,-21,-39,-12,-41
12,-8,-18,0,7,-8,4,7
-41,-2,15,-16,6,47,0,-10
-2,5,-5,14,8,4,0,5
-13,-1,-19,-5,-16,-17,7,4
3,1,15,4,21,60,2,1
9,-3,-6,2,-6,-50,-11,-11
-7,5,22,-8,-6,-5,-4,0
-8,-6,5,4,10,4,3,0
-5,6,10,10,7,16,4,4
-18,-6,-13,-4,-2,27,8,4
16,-6,5,-1,-5,-29,-8,3
4,-3,-15,3,0,47,3,-6
7,9,5,-7,-1,-35,3,27
12,1,-6,3,8,23,5,-6
-1,4,17,4,5,-1,0,5
-13,-21,-34,-1,-9,-23,-3,4
25,0,-4,-3,14,57,4,-11
14,11,0,-3,-6,16,5,3
-7,5,15,1,-3,-54,-4,2
29,13,24,0,-7,-15,-2,7
-37,-18,-24,4,13,71,9,-7
19,-9,-12,-10,-20,-92,-15,1
1,-1,-11,0,20,102,7,-1
9,16,17,-1,-5,-13,0,4
-8,-1,-8,-1,-15,-48,0,-6
-17,-3,19,7,1,6,0,0
4,0,12,2,-6,-11,-2,12
-31,-14,-34,-10,3,33,-5,-11
23,9,1,-4,-8,-15,-4,15
-4,0,8,-1,8,-1,7,3
2,6,47,10,-2,-37,-1,-7
-22,-19,-25,25,10,3,-6,-2
32,-8,-70,-47,-51,-52,-14,-8
-13,19,9,7,47,13,22,4
24,8,6,-5,-6,16,4,-2
7,10,66,13,2,-69,0,13
-24,-29,-33,-4,-44,-51,-18,-13
-28,13,4,15,55,23,6,3
20,3,7,-2,-3,-40,3,1
-6,0,0,-10,2,6,3,0
-7,0,13,9,-22,-33,1,-4
21,-7,-2,-3,-30,-41,-14,4
-6,-6,-21,2,12,44,2,0
-2,8,4,1,8,-2,6,1
0,8,10,0,9,-16,2,-2
4,-4,1,2,-2,21,0,-3
-6,-2,14,1,-22,-47,-9,0
7,-10,-40,-7,-4,18,-5,3
-19,-2,-34,-8,6,28,1,-10
8,-2,22,-20,-11,-8,2,0
-12,-9,-19,0,-4,-2,0,-4
5,9,33,18,8,27,-1,-2
-14,-3,38,27,20,5,1,1
1,-24,-55,-14,-30,-59,-10,-3
22,22,8,-13,18,50,7,1
4,1,-9,-15,14,44,9,10
-7,-1,7,-8,-21,-40,-3,0
1,2,25,19,-1,-2,-5,2
9,-10,-9,7,-32,-79,-1,9
-39,-6,-9,12,59,85,-3,-34
20,9,2,-10,-14,-32,6,9
-7,1,7,-7,-9,-27,-1,-1
-1,-5,-16,-1,1,-11,2,-8
19,6,31,3,-17,-42,2,7
-18,-10,-25,-4,10,21,-4,-9
1,-8,-35,-8,5,48,3,-3
-3,6,6,-2,-5,5,7,11
14,-3,-4,-8,-9,-7,-1,12
-15,5,21,0,13,10,-4,-5
23,11,46,21,-21,-54,-13,-3
-36,-30,-87,-11,1,-18,-13,-8
-31,12,-10,-17,6,53,17,9
8,-2,17,0,-11,-10,12,3
-1,3,6,1,10,9,-2,1
-14,-2,27,4,2,-29,-5,-3
20,-3,-5,-3,-27,-49,-3,1
16,0,-9,2,17,19,-1,-1
-10,3,6,7,8,66,11,12
0,0,5,-1,12,11,-2,-29
13,-3,-13,-9,-24,-45,0,10
-5,11,40,8,10,-13,-3,0
-1,-15,-4,10,7,27,-1,-10
-16,-16,-51,-15,-5,9,-1,3
26,33,15,8,30,60,11,-2
9,7,19,-2,-11,-32,3,-7
-9,0,10,-17,-1,-3,-2,-9
-4,-5,-2,12,-1,-2,-3,4
8,-9,32,45,2,-30,-14,-14
2,-13,-33,-16,-9,33,1,7
41,11,-13,-3,-4,-15,-3,6
1,4,14,-9,33,69,9,-3
-16,-8,-5,-8,-10,-29,-11,3
1,1,5,13,17,24,3,-10
1,-4,-11,-12,-19,-42,-2,16
-1,14,41,5,-15,-48,-2,-14
7,-18,-47,-5,6,30,-6,-5
-6,8,10,5,21,58,18,7
-9,-1,-2,0,12,-2,6,-7
2,10,34,10,-1,-4,-2,10
-7,0,17,3,-19,-58,-5,-8
-16,-41,-98,-29,-25,-32,-22,-4
8,36,8,-8,2,18,10,10
7,1,8,7,3,-1,10,-3
-8,-5,16,-11,-5,-13,-3,0
1,2,13,2,-3,-4,-9,3
2,-9,7,22,2,4,-7,-2
-10,-4,-4,0,-12,-28,1,-1
13,-4,-35,-18,5,48,9,9
-5,8,23,9,17,29,2,-3
-6,-8,-6,-5,-9,-10,-2,-18
8,4,8,2,4,8,-3,7
-12,-6,-1,-1,-12,-23,2,12
13,7,2,-1,-4,-19,-1,7
-13,1,12,3,0,-28,2,2
-2,-7,-20,0,6,27,-5,-12
4,-3,0,-2,7,19,1,6
8,2,2,-7,-5,-18,0,-1
23,8,14,2,4,-1,-3,9
-13,-7,-1,18,-14,-9,-2,0
-16,-2,-14,-17,-5,-33,-3,-5
3,-3,-14,-1,-12,16,3,-2
-19,-3,-4,-11,5,-2,2,-7
16,4,3,-7,5,17,4,6
9,10,23,8,-10,-50,-7,-2
-12,-10,9,1,-13,-36,-5,7
-20,-8,-14,-2,9,58,-6,-4
15,-4,-13,-3,-2,-22,3,3
-30,-4,-17,-2,8,20,-5,-7
11,5,8,0,-6,-32,-2,9
3,-8,-9,6,-6,-13,-1,-12
-2,4,9,-2,0,-2,-3,6
7,5,32,2,-3,7,7,2
-3,-6,-29,2,4,-12,-2,-9
1,-12,-31,-15,-2,9,-2,6
-20,4,4,-13,3,12,4,-2
23,2,6,8,-14,-6,4,-2
-21,3,28,13,9,0,-4,-6
13,1,3,1,-8,-41,-8,-2
-13,-7,-15,-5,-6,23,-3,0
4,-3,-14,-3,26,58,13,14
29,14,16,8,11,2,8,-4
-2,-2,-9,1,5,41,3,7
14,1,0,-10,-26,-69,-10,5
-2,-3,6,1,-8,-24,-14,-19
-2,-5,-9,-3,6,50,2,5
16,9,5,2,-4,-16,5,6
-8,-2,-2,-5,11,31,6,-2
-8,-6,-3,5,-14,-22,1,1
-6,1,-1,-7,0,-18,-4,2
-14,5,33,14,3,6,1,-2
7,-14,-39,-3,1,-3,0,-4
-11,2,-7,-5,-1,12,-3,9
7,-1,0,-11,-6,-33,4,-20
5,-1,2,11,13,55,8,-6
-3,1,16,-2,-7,-10,-9,-1
10,-2,5,-3,-5,-39,-2,1
-19,-6,-22,-4,-6,21,-5,6
29,4,-3,-1,6,-14,-3,1
22,9,14,8,25,63,16,4
14,6,3,-4,-11,-33,-4,5
-11,0,25,12,-10,-30,-8,7
-2,-13,-10,3,3,-2,-4,-14
-23,-3,-7,-2,-2,-3,-3,12
-4,-2,-8,-8,1,16,11,2
8,-2,-4,-6,5,21,0,-8
0,12,3,3,-12,-16,-3,9
10,-1,6,-9,3,10,3,0
-39,-4,16,24,8,8,-2,-7
1,-5,-17,-5,-12,-15,0,2
-22,1,-9,-8,8,3,0,1
2,11,7,4,-6,-4,2,-8
-8,-4,-5,-4,3,-1,5,18
20,-1,8,-3,-1,-5,-7,11
-54,-10,5,2,-6,8,6,-7
-1,-2,-7,2,-18,-25,-5,-2
10,-15,-42,-9,7,-11,-16,-21
2,18,19,12,31,26,5,9
13,-12,-24,-13,-13,-7,2,16
-39,1,20,2,3,13,1,-4
12,-1,1,-3,-20,-26,5,-8
-10,2,25,6,-2,-16,-9,-1
11,1,-12,2,0,-20,-5,-16
-43,-12,-5,-2,-1,1,1,20
30,15,-4,-6,5,35,3,4
8,1,-10,-12,1,21,5,-20
-19,3,40,18,6,-5,6,22
39,3,15,5,-3,-25,-15,-10
-45,-17,-25,-9,-7,-17,-2,-7
38,4,-4,-3,7,42,-5,-15
17,6,-6,-11,-14,-20,11,3
24,6,-4,5,10,30,0,-8
-7,10,28,10,17,25,4,12
-14,-13,-20,-1,-11,-57,-10,-15
-7,-8,-12,-6,0,10,-11,-1
18,8,13,5,6,7,8,12
22,5,2,-10,-16,-7,-6,-12
-49,-14,-9,1,-5,-7,12,11
2,5,15,0,-5,-12,-10,-23
11,3,3,8,5,-16,-7,4
6,-14,-49,-2,-6,8,-2,0
-13,13,37,-6,-2,-7,14,12
5,-3,-8,1,8,52,4,8
20,11,12,-4,16,44,10,-3
12,-3,11,7,6,-18,-4,6
-24,-6,-8,1,-20,-29,-4,-7
-11,-3,3,-2,0,-21,-4,-7
9,-1,0,-2,-10,-9,-4,-6
1,2,1,4,11,25,2,-2
16,-3,-9,2,3,11,0,2
-11,5,6,-4,1,-7,2,3
-14,-6,-4,-1,-14,-25,-2,-9
-1,2,4,-5,-6,25,5,2
0,-2,-4,3,-7,-27,-3,2
1,0,-9,-13,3,0,1,7
-19,-13,-10,11,-5,-5,-15,-20
11,3,-14,-2,-8,-48,-2,12
-26,8,10,0,11,78,15,0
33,-8,-14,-10,-2,-27,0,1
-21,-2,-2,2,-6,-1,4,-3
-9,1,18,-7,3,-10,0,-11
5,-3,-11,3,-13,-44,-11,1
-2,3,1,-1,4,35,-3,0
12,-3,-5,-3,14,18,12,6
-22,-6,-1,3,-9,-23,-10,-7
15,9,16,1,-9,-25,-2,1
6,-8,-18,6,1,32,10,-3
-7,-1,-14,-4,7,16,-8,-9
8,10,15,-2,8,24,6,9
-4,-3,6,-5,-9,-17,-3,-2
9,5,25,17,-2,-46,-1,2
-33,-15,-39,-10,-9,-9,-6,1
60,13,17,-10,1,22,6,-3
13,-1,-19,4,15,6,9,-2
-29,-5,0,-9,-4,0,-7,-13
-6,-5,7,-13,6,-3,3,7
7,-5,-5,31,-12,-16,-3,-3
7,0,11,-8,1,10,-3,2
-1,9,12,9,-5,-5,-3,-2
10,8,2,2,17,-58,-4,4
-13,-2,-10,-5,22,100,8,-4
0,-3,-7,-4,-3,-21,-2,-3
-8,-2,-2,-4,-11,6,0,1
-4,0,6,-4,-19,-26,-1,1
-15,-4,9,-2,-9,-48,-4,-5
-5,1,5,16,25,70,-2,0
33,-1,-31,-7,-10,-35,-4,2
18,5,-7,1,-1,16,7,7
-17,-6,-3,-3,6,1,6,-16
-15,-3,1,-9,-11,-3,1,-9
-3,-1,13,8,3,1,-1,2
14,-3,-1,9,-2,-20,-9,5
-12,-6,-13,-15,-26,4,-1,0
0,2,0,10,25,56,2,-3
-13,-1,-9,0,11,-33,3,18
-1,-3,1,1,2,46,1,-8
-5,0,1,-1,4,-10,-1,2
5,-1,6,-2,-20,-4,0,4
-3,-2,0,1,7,10,2,2
-27,-9,-11,-19,-17,-39,-11,-13
8,12,12,21,7,19,-1,11
32,3,-9,1,-1,-42,-3,3
-34,-19,-41,-25,-11,46,0,-4
53,23,23,-4,1,-6,16,8
-20,-12,4,9,8,-14,-5,-19
1,-7,14,10,-8,-5,-6,1
7,5,2,0,0,-16,-2,-8
-6,-2,-5,-1,6,21,0,-13
-12,4,17,-2,-3,-31,-8,9
15,-1,-26,1,2,18,2,4
-20,-7,8,3,-5,43,-4,-7
-8,-4,-15,6,16,-3,4,4
27,18,14,-4,-1,30,5,16
-15,-7,-10,-8,-5,-19,-10,0
18,2,4,-3,-13,-37,6,5
-11,-6,0,6,-8,-1,0,3
-1,-8,9,5,4,-13,1,-4
19,3,-15,-6,-2,-12,0,18
-6,5,15,2,4,17,0,5
1,2,6,5,1,-7,1,-4
-12,-9,-22,-17,0,3,3,-4
-13,3,16,6,0,2,2,-4
16,5,18,7,16,3,-5,-7
10,-2,-11,-7,-17,-10,3,10
-65,-8,-2,-4,0,-28,-13,-5
35,3,10,1,-11,0,-1,-7
-18,-9,-27,-1,12,56,2,-2
-5,8,4,-4,-6,-58,-4,1
20,0,-1,-4,-15,17,6,3
-19,-6,-1,-4,6,-14,-2,-3
7,5,13,1,-8,-47,-5,7
-1,-15,-12,-3,-2,26,-2,-5
8,2,3,9,3,-17,-3,-2
-9,7,7,-12,1,1,1,3
13,-10,-26,8,0,19,0,-4
-15,-3,-2,-9,0,9,-2,-2
16,5,-3,-4,-2,-4,4,-1
8,1,8,3,4,9,4,0
-41,-4,13,-1,-17,-44,-7,0
11,-2,0,7,-1,-3,-4,-4
-21,-3,-20,-2,11,33,0,3
4,6,2,1,7,33,2,-18
15,-2,2,-3,5,-30,2,6
-11,-1,6,0,3,0,-1,-3
5,3,1,-8,-23,-38,-3,-4
-18,-6,-12,5,10,22,-1,-1
-2,5,21,7,8,-7,3,8
4,-5,-14,0,2,29,-3,-4
10,6,0,-8,1,2,4,6
-24,-3,0,0,-3,-11,2,1
6,1,8,1,-2,1,-2,-9
0,1,21,12,7,10,1,6
10,-7,-24,-5,2,5,-5,-1
-4,2,-13,-8,-15,-34,-3,5
-10,3,-2,0,7,5,6,-1
7,12,19,0,1,31,8,2
6,-5,10,6,2,-55,-9,-4
-9,-13,-24,3,1,43,-2,-1
13,6,-2,-3,1,-25,-2,-4
-12,-4,-3,2,-2,6,5,7
11,4,5,-4,-12,-11,-2,-12
1,-1,12,0,-1,-27,1,1
7,-3,-2,5,7,46,3,0
-7,-4,-6,-1,-11,-29,-3,-7
3,2,14,1,5,25,3,9
-6,-5,-18,-1,5,-2,0,10
5,2,7,-13,-6,-1,1,-11
5,-7,-10,0,5,-1,-4,-2
12,5,-11,-1,-9,-1,-8,0
-18,-4,-2,3,-1,-8,5,3
5,5,0,-2,13,19,5,9
12,11,17,2,-3,-2,-2,-1
-7,-6,-3,0,8,20,1,1
10,0,8,2,-5,-17,0,0
0,-4,-3,-4,-17,-11,-4,0
-17,1,27,-4,-15,-73,-14,-4
-2,-7,-23,23,67,95,10,-1
12,3,-19,-13,-19,-51,-2,2
-13,6,8,2,3,-5,3,-24
-3,-6,-10,-5,-2,-13,-2,12
1,0,12,-2,-18,-18,3,2
-3,-1,9,4,8,17,-2,3
1,-2,-15,-5,-7,-3,-2,-1
3,-1,-10,-5,-1,8,2,-3
-9,-6,20,1,-15,-53,-3,-1
-6,-3,-6,9,35,85,5,-4
-1,9,-14,-14,-11,-7,-7,6
30,5,-26,5,11,19,7,-1
-26,2,5,-7,-16,-24,3,6
-28,-2,21,-1,-12,-38,-2,-9
-1,-7,14,13,5,4,-3,4
0,0,-8,-6,8,24,-4,-3
7,0,-8,-7,-6,-5,-2,-6
5,-3,1,-3,-8,-11,-2,-1
4,-1,-4,-3,-14,-2,3,1
-22,2,12,4,-12,-14,-3,-1
35,0,12,18,27,75,0,-5
-21,-7,-22,4,17,21,1,-8
9,9,-1,-8,-5,-11,-2,1
9,-4,-15,-9,-8,-25,5,1
-2,2,4,-7,-20,-40,3,3
14,1,12,1,-2,3,-5,3
-4,-7,0,8,8,-1,0,-3
-9,-5,2,-3,-15,-52,-7,0
-13,-1,15,2,-5,-26,2,-10
12,-7,-17,2,29,31,-13,-2
25,2,-25,-9,-18,-24,5,2
-69,6,32,24,15,20,9,-3
21,-7,-39,-16,-26,-17,1,0
6,7,24,-4,-17,-34,0,-2
-6,-7,8,2,16,12,-3,-1
14,-5,-13,-3,5,28,-2,5
-9,1,1,0,-2,-5,-2,-3
-5,0,0,-11,-14,-14,5,7
-7,-6,3,3,-24,-41,-3,3
11,0,8,18,79,106,17,2
11,0,-21,-5,-2,-73,-7,-1
5,3,-12,-4,7,-1,9,-1
-5,6,6,-3,-13,-41,1,12
24,-5,4,-9,-25,-21,-3,-4
11,1,10,0,4,35,1,1
11,1,3,5,-4,-4,-1,4
-8,-3,4,5,6,22,3,0
-6,-2,-8,-5,-4,-5,-6,-20
0,9,34,8,10,30,2,10
-26,-17,-47,-1,10,4,-7,-13
20,7,-8,-6,2,20,3,-4
16,9,-7,-9,-2,2,7,6
-7,2,3,-4,-18,-23,-1,5
4,9,29,8,7,8,0,-1
-14,-10,-1,4,14,14,-6,-5
5,-7,-13,-3,-10,-18,-6,3
-9,-1,-2,0,-1,-2,-2,-6
-2,-1,8,-2,-8,-10,3,2
4,-1,-6,1,7,-27,-3,-1
4,7,23,3,-3,53,-1,-2
-9,-12,-29,-3,-5,-2,1,-4
20,2,-15,-8,12,23,-5,4
-9,5,7,-6,-9,-42,1,-2
1,3,15,-1,-10,-16,3,-6
8,-1,6,2,1,27,1,2
12,-1,3,0,-9,-28,-4,0
-3,-1,4,5,1,18,-6,-2
-13,-4,-8,-3,4,8,-2,4
-1,-1,-7,1,7,4,-2,2
-2,2,8,3,-14,-25,1,1
4,-1,1,-13,11,18,-4,-15
0,-1,-12,17,-12,-36,-3,6
-11,4,44,15,7,-11,-1,0
-12,-6,-8,-4,5,6,-4,7
30,1,-55,-14,5,53,8,-7
-71,-3,4,-22,-1,-12,6,8
-5,-1,2,-5,-6,-18,1,-3
15,11,46,11,-11,-16,-2,1
-9,-8,14,10,-1,-24,-9,-3
9,-8,-20,2,1,25,-8,1
2,3,-6,-1,-1,-50,-1,6
-16,-3,0,-2,-3,45,10,-3
-2,-4,-3,5,-7,-7,-7,6
21,0,-1,1,17,18,6,5
-15,-6,1,-4,2,-15,-13,-1
23,2,-5,-2,-16,-12,3,2
-21,1,-6,-11,-6,-21,-8,6
36,-1,-38,-13,-25,-17,9,11
-31,-3,-5,-7,12,16,0,-2
-11,-3,5,2,-8,-24,-1,-6
16,3,32,7,5,15,3,9
-3,-1,16,12,5,-2,-7,-14
11,2,-14,-2,-1,18,0,0
-7,-2,-3,7,-1,-9,-4,-2
-15,-10,-18,-5,-2,16,4,1
26,9,3,-2,6,-16,0,0
18,-1,-21,-9,-12,6,7,-3
-5,11,19,6,20,25,6,12
-24,-4,6,11,27,64,-2,-15
-7,-7,-14,-7,-10,-29,-7,1
8,1,10,3,5,-1,4,-1
-3,-7,-17,-6,-5,3,-7,-1
16,1,2,0,3,-18,7,16
-20,3,24,3,-9,5,-4,-7
13,-8,-40,-4,-5,12,-4,-5
-24,4,2,-10,-4,-21,3,-9
-11,-3,0,4,-5,-7,10,1
6,-1,12,2,6,7,-8,-3
1,1,5,1,4,7,-1,0
10,-2,-11,-6,-5,-6,-4,-1
10,-4,7,1,-16,-19,-1,5
-27,2,14,4,6,-24,0,-8
6,2,-24,-4,-17,-12,-2,9
6,-2,-13,1,16,44,4,-3
-6,4,13,3,8,11,4,-3
8,-6,-4,-3,12,24,2,10
-11,-3,2,-1,-10,-50,-6,-14
3,1,3,-3,-13,-14,1,3
11,1,11,11,7,-3,1,4
-1,-5,-9,-8,-11,-31,-12,-15
-9,0,3,3,2,43,3,-2
-2,-3,-23,-10,-9,-10,1,10
-9,-4,-1,5,1,-1,1,-7
32,5,-9,-2,-3,4,5,3
-20,1,8,2,8,0,-2,-1
-16,-10,7,-1,-23,-27,-1,-5
19,4,5,-5,21,43,2,6
-13,-4,-18,1,-17,-33,0,-3
13,16,62,7,3,45,-6,-13
4,-20,-58,0,30,21,3,-2
-31,-14,-41,-25,-32,-46,-10,-7
31,19,29,0,4,2,10,2
-20,-7,-6,-1,1,7,1,12
3,7,33,6,-11,-11,-2,-8
5,1,11,11,6,10,-11,-5
-9,-11,-17,-4,-1,4,-4,4
0,-10,-20,-10,-20,-47,25,7
14,2,36,12,-6,18,-9,2
-1,9,0,15,45,-5,-17,10
27,-1,-67,-23,-31,-51,11,1
-62,-2,12,-4,11,-9,6,-4
11,7,17,-3,-17,-39,-14,-11
9,-15,-3,-8,-24,-26,9,-6
-21,-2,17,10,22,72,4,0
27,0,-14,-6,5,3,-16,3
-5,0,-1,0,5,-11,3,-1
-12,-1,10,10,-10,10,10,-3
-1,-5,16,14,-4,-18,-13,-2
13,0,3,7,2,-23,-4,9
25,9,-20,-4,56,86,11,1
-9,8,-22,-14,-11,-12,4,-13
-37,0,11,7,3,-9,3,2
-15,-4,21,-5,-13,-37,1,-2
-7,-2,17,5,-9,1,-1,-2
14,1,-4,5,10,-17,-9,4
0,2,9,-3,3,22,-1,-5
2,-6,-12,1,-5,-26,5,-1
0,-2,-4,0,1,-9,-2,-5
-16,-2,25,0,-11,-3,-8,-8
10,8,29,10,21,4,1,8
43,-14,-86,-16,8,16,0,-6
-13,10,-1,-11,-23,-15,7,7
5,0,12,-2,-5,-8,9,-4
-4,-2,20,7,-2,-21,-1,-2
15,4,16,13,20,48,-9,2
-3,-10,-15,-11,-21,-20,-1,-2
-10,-1,-3,2,4,-3,4,-7
4,-6,-3,4,9,-6,-5,4
1,6,9,-2,3,44,-7,-9
4,-3,7,7,11,-18,5,7
-59,-14,-29,-4,-4,3,-2,-5
17,13,-2,-11,-5,0,1,-7
-2,-1,4,-3,-13,-8,7,3
10,8,20,4,0,-10,-2,1
-1,0,4,6,4,2,-3,5
3,-10,-22,-6,-11,6,1,1
-5,6,13,1,2,-22,3,3
-4,-4,-7,-2,0,31,-5,-8
13,-3,-2,0,6,-5,-5,-5
-18,1,5,-3,-7,25,4,5
17,-1,-4,5,5,-10,-9,-9
-12,-8,-41,-6,-12,-16,5,10
1,7,-1,-9,5,-5,3,0
-1,-3,13,-1,-6,22,6,3
-9,6,17,6,6,2,-1,-2
5,0,-1,0,-3,-23,-2,-6
11,0,3,-6,-6,12,-1,-1
-5,-4,-5,-2,7,-2,-5,-6
-2,-7,-2,9,-15,-12,-4,6
-5,8,53,14,10,1,-2,0
20,-5,-59,-9,13,73,9,4
25,15,-6,-14,-23,-33,-6,-1
13,-3,-8,2,6,12,11,9
-21,-1,13,4,6,-8,4,3
13,0,24,6,-2,-22,-6,9
-12,-14,-17,0,-7,2,-2,-5
-8,5,-2,-6,-5,0,-5,-4
15,0,3,1,2,9,2,-2
-1,0,8,-4,-17,-28,-1,2
-2,-8,-18,-1,10,-20,4,0
-10,-2,13,6,7,29,-6,-24
20,4,5,6,7,21,-1,19
-15,1,-28,-5,5,20,1,0
8,10,14,-10,-16,-18,-3,-4
-17,-4,-13,-11,-5,-20,7,-7
-10,-19,-49,-5,-14,-24,-4,-1
24,10,31,5,0,-1,4,4
3,-5,3,8,7,10,-3,2
-1,6,18,0,4,2,-1,4
-8,-1,-2,-3,1,1,-3,-11
-1,0,4,0,-21,-18,-2,0
-11,-7,-2,1,4,0,3,-2
6,0,-7,-1,9,15,-3,1
-7,-4,-8,-2,1,-6,1,-3
18,1,26,14,9,-9,-8,1
-7,3,-31,-23,-19,3,-5,-4
-26,3,-14,4,-4,11,13,1
-2,-9,-21,-24,-7,-34,-3,0
18,5,9,2,-11,-27,2,-1
-11,-14,11,22,19,18,1,2
1,-1,1,-4,-8,-4,-8,6
-2,5,2,-2,-3,-4,1,-7
-15,-6,3,-7,6,3,5,1
0,-1,-3,1,-18,-23,-13,-35
14,1,3,7,11,39,5,18
-2,0,0,11,24,30,6,-1
12,2,-15,-9,-8,4,2,0
0,5,0,3,17,11,8,7
-20,-4,5,-7,-15,-34,0,-6
5,0,10,0,-17,2,-3,0
-6,0,-1,8,7,16,-1,0
10,-4,-1,1,8,-4,1,1
-13,-9,9,4,4,7,-7,3
-14,11,4,1,-2,-8,-1,-5
59,-8,-35,-8,-7,-2,-3,-5
3,-1,-10,-7,-8,-11,2,2
21,5,10,-3,2,-2,1,4
-6,-1,5,4,-5,-11,-1,1
-11,5,18,5,6,15,3,-4
-3,-3,5,2,5,2,-4,2
9,-6,-12,-6,-12,0,2,3
4,0,-1,-3,-8,-53,-15,-4
-24,-3,18,7,10,1,-1,3
4,-4,-10,12,11,41,6,2
-1,-1,-26,-21,0,6,-5,-5
15,7,6,7,-6,12,8,6
-27,-9,-8,-4,-15,-30,-2,4
-2,3,10,1,-3,-2,-3,3
11,-4,3,2,1,-1,0,-1
1,-4,-4,-2,0,-7,-5,0
-6,2,3,2,-2,6,2,0
-6,-4,-1,-9,3,-9,-2,-3
4,5,26,17,-2,-1,5,13
-6,-3,-5,-1,10,-3,-4,6
-10,-22,-65,-17,-3,23,-3,-8
15,22,24,2,2,3,12,8
-16,-8,-12,-7,-1,-7,5,-3
14,5,11,0,3,1,2,-2
-1,2,17,5,2,-8,-2,2
-5,-7,-14,-3,-10,4,-3,-2
10,1,6,4,1,-8,-5,0
-6,-5,-5,0,5,17,2,-5
-5,1,11,0,-8,-17,0,-3
8,16,70,14,1,20,4,3
-35,-25,-83,2,47,51,-2,-6
42,12,-9,-21,-19,1,5,11
-22,16,9,-4,3,-13,13,7
-6,-5,10,0,-11,-21,-7,-4
-14,2,27,5,-7,-9,-4,1
-5,-10,-14,0,2,1,-5,-13
11,0,-1,0,-4,-2,-5,-1
-26,-2,18,6,7,-5,4,4
30,2,6,12,1,-9,-9,-3
-38,-26,-85,-32,-6,45,-2,-4
-13,22,39,4,-8,-12,10,0
-5,-13,-28,-8,-6,-9,3,3
2,5,27,-2,-4,-20,-4,-5
0,2,29,15,5,-4,4,0
0,-11,-17,-1,-7,8,-7,-2
-2,-5,-20,-4,8,3,-4,-1
16,14,52,7,-20,-49,3,4
-22,-10,-22,12,42,66,4,4
21,0,-30,-20,-10,2,-9,-25
47,5,-4,-3,3,-7,9,17
8,0,3,-8,-17,-3,0,-10
4,5,25,3,-14,-31,-1,7
-3,-6,10,8,5,-11,-3,3
-6,-6,-22,-2,1,-10,-5,-7
8,3,-7,-1,-5,18,3,1
-8,2,35,-7,-20,-49,-6,-2
7,-8,-46,16,36,92,8,6
4,-2,-29,-8,-3,-21,-1,-2
-43,3,2,-11,-7,7,6,7
19,8,14,3,2,-16,2,-4
0,3,36,-1,-4,-34,-4,5
-10,-7,-6,0,-7,28,-2,0
0,-9,-20,-4,10,-2,-5,-17
1,2,2,7,-13,1,1,-4
-4,0,-7,-6,-4,-13,0,4
-1,2,2,3,9,17,1,-5
1,-1,-6,-3,-2,-5,0,10
0,0,2,-7,-16,-27,-6,-26
11,0,9,7,10,37,3,5
-32,-9,-10,-6,-15,-33,-2,-3
13,-1,-11,-4,-3,5,-5,-9
35,14,8,9,39,43,15,20
-25,-2,1,-3,-15,-33,0,-6
6,4,-1,-3,-5,12,-5,-7
-6,-12,-16,0,-3,-21,3,7
-5,-5,-11,-1,-14,6,-1,-6
34,8,20,1,13,-3,2,4
-17,1,9,5,2,13,3,5
10,1,-13,-1,8,-9,-4,-2
-31,-7,-7,-3,-7,-12,-3,-3
-1,6,33,6,6,35,-1,4
-14,-25,-45,-5,1,-13,-4,-7
15,16,8,2,1,10,5,7
4,10,12,5,24,28,11,4
-13,-4,3,-4,-11,-26,-9,-8
6,4,10,1,-4,-18,-7,3
-1,-4,-4,1,0,25,2,-1
-1,-9,0,-9,-17,-32,-3,4
0,9,11,9,-2,-12,-9,5
45,-8,-10,4,19,30,0,-9
-5,5,14,-5,-10,-7,0,11
13,-5,-7,-3,-2,10,6,10
-12,-10,-28,-12,-3,1,3,7
12,6,6,9,-3,-28,0,5
-2,3,5,1,5,16,-4,-3
-16,-7,0,-1,-13,-21,3,-3
7,2,9,2,1,-8,-8,-3
-24,-1,0,-5,0,23,-1,2
-1,-4,-17,0,12,11,5,-9
12,7,-2,-5,-5,-18,0,12
-17,-12,-9,-6,-10,-8,-1,-6
2,4,11,-3,-12,-22,-4,-3
1,-5,7,5,3,1,6,8
-8,1,1,7,10,31,-11,-24
-30,-17,-45,-11,-11,-35,-2,7
48,17,19,-1,-3,13,3,4
-40,0,-10,-4,-2,-26,0,-3
10,3,16,7,3,52,-2,4
10,2,15,5,1,-15,3,-10
-16,-8,-8,4,7,-6,-5,-4
15,2,4,-3,-5,11,1,-1
-1,0,-2,0,6,-15,0,4
-2,1,-5,6,15,29,1,3
1,-1,-2,-6,-4,4,12,-5
5,5,14,0,-2,3,-2,-5
-30,-7,-20,0,-4,-6,-1,-10
33,10,27,0,1,10,4,6
-15,-3,-10,10,0,-19,-3,7
0,-8,-24,-13,-8,-17,-6,-9
-2,-2,-17,-10,-5,5,2,0
-34,2,6,-4,4,15,9,5
-11,5,30,5,5,-10,0,-5
-20,-15,-24,4,-7,-4,-10,-17
5,0,-2,0,-3,16,-1,10
8,6,10,1,-12,-47,-1,3
-2,0,-6,1,21,67,11,-1
22,1,6,8,22,76,9,10
-18,-3,3,1,0,-25,-4,6
-4,-3,-12,-3,-1,-5,-4,-3
-2,2,1,-4,-15,-40,-5,1
8,3,32,5,-6,-14,1,1
-21,-11,-16,4,3,-2,-4,-8
35,3,-21,-8,-11,-4,-4,2
-19,1,-4,-11,-7,1,-2,2
13,10,10,0,11,10,8,0
19,-4,1,4,-6,-24,-5,-3
-1,-4,15,3,-11,-20,-7,-11
1,-9,-29,-6,4,19,0,1
-3,-1,3,12,23,-5,-3,15
2,10,17,-2,-5,-13,-1,-13
16,0,-6,1,2,23,0,-1
3,-2,-1,-5,-5,-13,1,1
-11,-3,3,-5,-15,-34,-10,-9
19,-1,-4,-1,5,-12,1,19
-35,-9,-3,-2,-5,6,0,-7
13,4,9,6,2,-11,-4,5
-8,3,-2,-1,-4,9,6,2
11,6,13,-2,-7,-28,-3,-2
1,-3,-30,4,32,97,13,1
-39,-8,4,0,-5,-25,3,-5
-14,-1,2,-1,-1,-2,1,-1
18,5,15,6,-9,-33,0,1
-2,-5,2,-5,-4,-17,-10,-15
-17,-5,1,1,0,3,-4,3
18,2,-7,-2,-8,5,6,11
-19,-2,-7,-6,2,24,0,-24
12,-2,3,-2,-7,-18,-6,-5
5,0,-9,-2,-2,4,1,7
2,-1,10,-2,-14,-15,1,-2
2,-1,6,-1,9,3,-5,2
9,2,3,0,-1,0,2,1
-9,-9,-3,2,-4,-13,-2,-10
-4,-5,-25,-9,-16,-35,-3,-1
3,-2,-22,5,34,81,13,9
-3,9,14,1,8,-9,2,-1
-35,2,20,2,9,2,2,-1
-1,-6,-3,1,-3,-27,-3,-4
-4,-2,2,-6,-10,-7,-5,2
6,0,3,-1,-12,-8,-3,11
13,1,0,1,-10,-2,-2,-10
4,5,33,11,17,7,-5,-11
-23,-6,-39,-9,0,17,2,1
28,5,-2,-4,-3,-16,-1,-11
5,8,-11,1,-4,3,5,3
5,-7,-1,-3,-7,-22,-1,-3
2,6,26,5,0,8,-3,1
-13,-9,-11,4,6,1,4,-1
11,1,-7,-5,0,-5,-7,1
-3,0,0,-1,-7,-10,0,1
-3,0,8,3,3,20,2,-19
-7,2,10,6,-5,-28,1,8
62,-7,-29,-10,17,36,-5,-4
-17,7,-15,-4,-2,13,12,8
24,-1,-9,-15,-9,-16,3,5
-36,1,21,1,-18,-18,-2,-1
13,3,26,9,6,4,-5,-2
5,-6,-16,-1,-3,0,-7,4
-4,-1,-1,-1,2,-16,-1,3
10,0,3,0,3,15,4,-2
-16,-1,-2,-2,-8,-29,-2,4
2,-4,-12,-1,7,27,0,6
-15,2,13,6,4,18,4,-11
5,-5,6,4,8,2,-9,3
-3,-14,-61,-23,-22,-15,-2,-3
-9,11,-15,-9,0,12,9,-6
-8,4,9,0,1,-20,6,2
-1,-3,1,-1,-8,-7,0,5
-2,1,27,5,6,3,1,0
4,-5,1,3,-1,4,-10,-5
1,-4,-7,1,-3,-7,-4,5
-2,-1,-7,-4,6,-1,5,-3
-21,0,10,-1,-9,1,-7,-18
16,3,30,20,3,-49,-7,-11
11,2,-15,4,24,96,2,5
14,3,-32,-18,-15,-49,2,4
-7,2,1,-5,-6,12,13,4
-9,1,8,-2,2,-7,6,0
10,-6,22,5,-12,-39,-9,-1
-5,-4,1,4,0,18,-6,0
-1,3,4,2,5,7,0,4
-1,-3,-2,-1,-2,5,-1,2
-21,-2,0,-7,-11,-39,-2,-1
9,-5,6,4,2,11,3,12
-8,-8,-41,-1,5,13,-1,-2
-5,16,17,-1,33,48,1,-6
-2,-10,-43,-8,-16,-19,5,-3
-1,1,4,-12,-9,-15,0,0
6,1,34,13,0,-10,4,7
2,-8,-5,2,-6,4,-4,2
-7,3,10,-1,-3,-14,-8,-1
-3,-1,1,7,7,5,-2,-2
-3,0,5,0,4,-2,0,3
-2,-3,-14,-7,-13,19,1,4
5,8,16,7,-7,-13,2,1
-3,1,12,11,23,3,-1,1
-10,-6,8,4,-1,-5,-6,1
13,-24,-97,-33,-19,-31,-20,-18
-7,32,32,-2,8,28,20,14
12,-1,0,2,-3,27,13,-3
-6,5,31,8,1,-9,-7,-1
6,-3,24,13,1,-8,0,5
2,-12,-16,-2,0,-18,-10,-5
-10,3,-8,-5,0,3,-5,-6
9,8,7,-6,4,7,6,10
-4,-4,3,12,-9,-14,6,11
1,2,24,6,3,12,-8,-6
1,1,-4,8,11,31,3,0
25,2,-9,-11,-2,-16,-3,1
18,5,-27,-9,4,6,9,5
-5,-2,-9,-10,-12,-21,0,-4
-9,-4,17,4,-7,-9,-4,-5
1,-1,-1,6,3,37,2,1
1,1,19,0,1,-6,-4,-5
1,-3,5,3,0,-10,2,10
-6,-2,-14,-5,-6,-7,-6,-14
2,2,-12,-2,2,-23,-2,10
-6,2,29,5,5,49,6,8
-4,-6,-9,11,8,2,-2,-11
20,-11,-45,-16,-8,-18,-5,2
-33,22,30,-6,-3,5,4,-6
3,3,0,4,-1,-11,6,-1
5,-19,-27,-8,-5,0,-4,1
8,5,14,7,2,7,6,6
1,-7,-5,-1,-3,-15,-1,0
-10,2,20,0,-7,-5,-4,4
7,4,0,2,7,2,-8,-14
-24,-17,-15,2,-1,7,3,-2
0,-2,-22,-7,-2,5,-5,-4
-3,6,5,-4,-9,-14,3,6
10,3,15,0,-5,-15,3,5
2,-1,-18,-4,2,-6,-5,-6
-9,-4,-4,4,5,7,7,1
5,-1,-4,-2,-1,7,-5,-4
-1,-1,2,-1,3,5,4,-4
3,4,20,4,-2,4,-5,10
-8,-5,-6,0,-10,-1,1,-1
5,5,5,6,24,17,-3,4
14,-10,-26,-7,-9,20,5,8
-11,3,-5,-6,-5,-36,0,-17
6,2,6,-1,-3,-3,-1,-1
-3,-1,11,1,-12,-8,5,12
-17,-6,-2,4,-2,-9,-2,5
14,7,14,1,7,0,-4,-11
-13,-4,-2,5,-7,-2,-5,-4
6,-6,2,-2,-2,-10,-4,-5
0,6,-2,2,12,45,5,8
-6,-4,-15,-10,-11,-17,-1,5
5,4,17,2,3,20,8,-3
15,-3,-15,7,5,-4,2,-1
9,-2,1,-1,1,-38,-8,-3
-19,-1,9,-5,-12,17,2,4
-3,5,20,10,5,-4,-10,-4
-15,-7,-19,6,12,38,3,8
22,1,-15,-10,-3,-24,0,6
-17,-6,-8,-5,-2,10,3,-6
6,-4,-11,-9,-11,-3,-2,3
-2,6,18,1,2,-10,1,1
-13,0,9,1,-2,0,-5,-24
25,4,7,3,3,4,3,14
-4,-6,-4,0,-9,-28,-6,2
-11,-5,-10,-3,2,19,4,-9
4,0,-1,-5,-7,6,-6,0
-7,8,6,7,11,4,7,2
16,-1,-5,-2,9,3,3,-6
-20,-3,-3,-6,-13,-20,-5,-4
-4,-2,4,1,0,-11,-3,3
-3,-3,-1,1,-6,-13,-5,-3
3,3,13,6,15,21,3,8
13,-8,-14,-2,-11,-37,-1,-3
-42,0,1,-5,15,59,0,-10
27,8,-13,0,-4,-23,2,3
-4,-2,0,-5,0,-8,5,-1
3,1,14,-3,9,39,-1,-3
-3,-5,-1,9,-11,-25,2,5
7,1,5,0,9,20,0,7
-20,3,-5,-1,-2,-15,-6,-15
11,12,7,-2,-4,-5,8,3
-47,-9,-6,-7,-10,-9,0,-1
-10,7,29,5,-4,3,-8,3
18,-4,-16,11,5,-5,0,3
-38,-22,-54,-22,-2,14,-11,-20
34,16,11,0,2,3,18,13
-1,-3,11,-1,1,-8,1,-3
-27,-5,-6,-2,-7,-20,-6,2
5,4,13,4,3,5,-6,-8
12,-1,-2,3,3,-17,-4,2
-15,-1,17,8,18,65,-1,4
15,-16,-51,-13,-5,8,4,3
4,6,8,-4,-27,-37,6,-6
-20,6,-4,3,25,22,3,-6
30,10,17,-4,-16,-30,-2,8
-4,0,12,5,14,15,-1,-21
-5,-6,-11,-2,-5,-30,-5,11
9,-10,-12,-5,-19,-23,-5,3
5,0,-10,-3,2,-13,-7,-6
3,7,37,3,-9,19,11,7
-6,-12,-43,-3,-7,-84,-2,-2
14,3,7,6,46,96,11,-2
-44,-6,-27,-8,-19,-45,-5,-3
29,0,-1,-7,-5,-27,-7,9
-6,7,37,2,-9,-24,7,11
-26,0,0,3,-10,-23,-9,-8
0,-7,-15,1,2,-2,1,0
12,12,31,2,-5,-11,-3,-1
-20,-7,-25,-2,7,70,-4,-7
27,2,-7,-2,1,10,11,10
-20,1,8,0,4,12,9,-2
1,-3,0,1,-3,-28,-4,0
19,3,15,8,12,40,2,-1
-18,-5,-6,-4,-9,-23,-13,-3
13,2,-17,-4,-8,-4,2,1
-4,-1,1,5,14,40,10,6
-8,1,11,-2,12,13,-4,-7
26,5,27,4,-8,-4,-1,7
3,-4,-20,4,10,-4,-3,8
1,-2,-17,-7,-11,-41,-4,-1
5,3,3,-1,-1,31,-3,-14
22,4,7,2,-9,-19,0,-7
10,6,23,1,-13,-22,-4,2
-5,-18,-46,-7,1,50,11,6
36,6,0,-5,11,16,-3,5
-26,3,5,-1,-12,-53,-3,14
-4,-5,14,3,5,29,-3,-11
1,1,2,0,-6,-10,-4,-7
-9,-9,-6,-2,-1,19,2,7
12,6,22,-4,-12,-38,-1,-5
14,0,-8,-5,5,23,1,-1
-24,3,-13,7,13,16,8,6
8,-1,4,3,0,-29,-4,11
-30,-5,0,-2,-2,24,-4,-16
37,4,23,2,-12,-31,4,-3
-10,-4,-5,5,24,14,-8,6
-3,3,-14,-4,-5,-12,-2,-11
-6,-5,-8,-3,1,-18,2,9
7,-4,-19,-6,-9,-21,2,-13
-1,-3,-10,-14,-6,37,-6,-1
2,8,13,9,6,-16,2,5
5,1,-2,-2,-2,-16,-2,-2
-24,-4,-1,-1,-4,11,-1,-1
15,3,-1,1,-4,-19,-6,-2
-12,-1,12,4,9,11,3,2
27,5,0,-1,1,16,-2,1
-30,-11,-20,0,8,-12,-1,-2
-1,1,17,-4,-1,25,-4,1
14,-7,-8,-7,-21,-56,-4,1
14,2,5,4,8,41,4,2
9,1,5,2,1,5,3,4
-16,-2,7,4,2,9,0,-3
27,8,11,2,1,-27,-2,-1
-27,-5,-20,-3,-16,5,3,8
-27,0,-8,-4,11,20,-2,-7
18,1,-7,-1,-7,-20,0,-5
-25,0,-1,-3,0,20,8,4
15,-1,0,0,-3,-28,-4,5
-1,-1,10,2,-3,7,-1,-3
-9,1,17,1,-4,-3,0,0
-16,-2,9,-5,-2,-26,-11,-4
10,-22,-50,-2,-19,-39,-3,-3
-30,15,2,-8,12,76,14,4
28,6,13,6,3,-22,5,-2
5,6,24,8,3,-12,-6,1
-17,-3,8,1,0,4,-3,-7
4,-12,-14,2,-9,-8,-6,-2
11,6,5,1,-7,-27,-5,4
-21,4,4,8,50,93,11,2
-4,-7,-19,-13,-10,-29,-18,-13
22,-1,-15,2,4,-12,6,5
-13,3,0,-6,-15,-20,6,-2
-9,-4,-5,-3,-16,-25,5,0
5,0,1,3,8,26,0,1
11,2,11,1,7,2,0,3
-5,-5,-5,-4,-8,-17,-5,3
-5,-5,-5,0,-15,-8,-8,-13
15,7,33,7,8,21,6,-19
-15,-3,-41,-8,0,-6,-5,5
13,-6,-38,-14,-14,-9,0,-4
4,5,6,-3,-10,9,9,7
-5,-2,-3,-3,3,-12,3,-3
-6,-2,27,5,-13,-23,-4,0
-9,-3,0,2,6,1,-3,-4
1,-2,-6,-1,-10,10,-2,5
9,0,18,5,1,-57,-1,6
17,-4,-16,3,24,64,4,19
-35,2,-23,-10,8,35,1,-16
-29,4,16,-2,-5,-12,6,6
-15,-3,2,1,-3,-8,4,4
12,0,1,3,-3,-27,-6,-8
3,0,6,4,1,0,-1,3
2,-5,-8,-1,0,0,-1,0
-5,1,3,0,4,23,0,2
-11,-1,3,-4,-5,-26,0,1
6,2,25,16,4,-6,-1,-19
12,-4,-10,5,7,1,-5,2
-11,-3,-29,-16,5,59,-5,-16
-6,9,1,-3,-2,-22,12,1
5,-3,5,-5,-2,-10,4,4
9,1,14,7,-4,-19,-6,0
-1,-4,1,2,3,5,-3,-5
-10,-3,-3,-5,-12,-24,-9,-7
4,2,9,1,1,2,1,7
-2,-5,-10,-2,-1,-4,0,-7
-1,-3,7,4,8,46,-6,0
-12,-9,-20,7,16,13,-9,-8
35,11,-19,-14,-21,-31,-1,7
-40,-14,-38,-18,-4,23,8,-9
6,3,-11,-5,1,-12,9,7
-10,0,35,5,-6,-10,-1,-1
-9,-7,6,11,15,21,-4,-4
15,1,-6,-3,-8,-15,-8,-1
5,2,4,-7,-9,-13,1,5
2,2,6,11,-3,-3,8,3
9,-1,7,6,36,63,-5,-7
-33,-10,-27,-10,-4,39,4,1
23,18,17,1,-4,-26,5,6
27,-5,-21,-15,-11,-13,0,8
-1,-2,6,-1,-10,-7,5,-4
27,1,19,7,6,-10,-1,-1
-16,-10,-6,3,4,3,-5,7
6,2,8,-3,-20,-10,-5,-4
0,-6,5,3,2,-21,1,5
-3,-2,6,7,9,47,-10,4
-4,7,0,3,1,-27,-3,-1
16,2,8,-5,1,5,-5,-18
-29,-11,-30,-5,-7,-31,11,16
10,3,-12,-11,-15,-27,1,-10
-3,4,11,1,-2,-3,-2,-3
-5,-4,6,0,2,-2,-3,-2
-9,-1,4,1,-2,11,-4,3
7,2,6,3,-12,-37,-2,0
4,3,29,11,3,8,-3,8
-13,-8,-1,13,38,32,-1,-8
-12,-9,-64,-28,-34,9,-8,1
46,29,27,-1,3,-9,5,-3
-17,-16,-30,-3,6,28,15,6
7,7,19,4,-8,-19,-1,5
-6,-4,23,11,7,8,-2,2
-2,-5,-10,-4,-10,-40,-8,-1
0,-1,3,-7,-39,-53,11,-1
-9,4,13,26,91,104,-12,-18
25,0,-14,-2,-14,-16,7,6
-30,2,-3,-8,1,-35,3,13
10,10,13,2,7,13,-7,-25
-15,-11,-20,-13,-31,-36,11,10
-4,3,11,1,0,-7,-4,-6
6,2,16,11,15,27,1,7
-15,-8,-9,0,-3,-36,-14,-8
3,-1,-37,-19,-18,20,-3,-2
7,12,16,0,7,9,4,1
4,-10,-4,0,-12,-9,3,2
27,9,2,4,16,5,1,5
6,-5,2,-2,-25,-31,-2,11
-9,-9,3,-1,-2,9,-1,-2
11,6,3,15,32,-2,0,6
-12,4,15,-2,20,102,19,5
39,9,-7,0,10,-11,-2,-5
-13,-1,-4,-4,-4,-35,-4,1
10,-5,5,-2,-12,-19,1,-1
7,6,25,6,8,-3,-3,-5
-56,-8,-22,-6,-9,-7,5,-4
11,6,17,1,0,16,-1,-4
-10,-5,-8,-3,4,19,2,-1
2,-4,-10,-1,-12,-31,-2,2
0,6,36,1,-2,14,-1,2
-10,-1,-20,3,4,-38,-7,3
28,-4,1,-2,11,40,-1,-8
19,2,-32,-4,-2,21,11,6
-14,-1,16,1,6,-10,-4,12
4,2,10,4,-1,-4,-3,-11
-1,-3,3,0,-15,-62,-5,0
5,1,7,2,-7,38,-6,7
-2,-12,-31,1,-2,-24,3,9
-2,6,-4,-7,-3,-16,-1,-11
6,1,0,2,8,35,12,13
-5,-5,11,1,-10,-51,-11,-3
-9,1,9,2,-22,-8,-1,-1
5,-2,0,-8,7,24,-3,3
-9,1,-14,-6,-3,15,5,-9
-4,-3,-13,-7,-8,-17,0,2
-2,10,35,15,20,40,5,-3
-21,-12,-20,-5,-17,-39,-6,-4
10,0,-5,3,18,39,-2,6
-24,-8,7,0,-5,-39,-2,-11
-12,-5,-22,-1,-4,37,3,-9
22,6,15,2,3,-3,0,1
-29,-1,-2,1,8,1,4,-5
0,-6,-17,1,2,53,6,4
9,3,2,-1,-1,-17,-6,-4
-8,3,16,3,5,17,3,2
-13,-6,1,-1,0,11,-3,-7
-10,0,-16,-9,-14,-46,-9,-2
46,11,2,-4,-5,-13,7,17
5,-5,-10,2,2,23,-1,-2
-15,-1,0,1,-18,-48,-7,-4
5,2,10,6,11,25,0,-4
-3,-13,-3,-12,-9,-32,-5,-8
7,-8,-35,-5,-14,-24,0,-7
8,-1,-2,9,32,53,3,4
-17,-2,-12,-7,-3,-18,-4,0
22,8,18,-1,-8,9,5,1
-4,1,26,9,-6,-29,-2,-1
-19,-2,-3,-2,-10,-23,-3,-8
24,-11,-38,3,35,27,6,15
-48,-6,-14,-12,-12,3,-8,-26
11,6,18,4,3,29,10,5
-9,-3,2,-6,-13,-11,-2,-2
25,4,15,-1,-14,-23,-5,-2
-1,0,-5,-2,-5,-13,4,8
-2,-5,-13,6,29,43,6,6
6,6,7,-7,-12,0,-5,-2
8,6,26,6,-5,-34,-1,-1
10,-20,-59,-2,5,39,2,3
-20,5,15,-6,-14,-85,-7,-3
7,7,22,6,24,94,13,18
-13,-8,-17,-1,-12,-59,-11,-7
19,6,12,0,-1,-23,0,2
-23,-1,-2,6,17,41,6,8
14,-9,-8,-1,-14,-31,-9,-1
-19,8,14,5,14,50,11,0
11,1,10,3,4,-51,-2,12
20,6,0,-4,-4,24,2,-3
-13,-1,3,5,13,40,3,-22
-34,-7,-24,-3,-4,5,-7,-5
6,1,8,0,3,-5,3,2
11,1,8,-3,-6,13,5,10
2,1,3,0,-15,-65,-10,-2
22,8,19,-2,0,28,-1,13
-27,0,-5,-1,0,10,3,-12
-24,-29,-59,-9,-5,-33,-3,-5
1,3,-11,-3,4,33,6,4
4,4,10,3,12,2,3,-7
11,7,38,-1,-20,-68,-8,4
13,5,-7,4,20,92,-1,4
-37,-15,-27,-6,-24,-42,-2,8
-6,0,7,-3,6,-10,6,-3
10,-6,-9,-3,-8,-41,0,5
-41,0,18,2,-1,5,-4,-25
19,2,-8,-3,-11,-11,-6,-1
-4,-5,-5,-10,-17,-3,-5,11
19,7,4,5,22,51,3,-9
-19,-2,16,3,6,-5,2,10
13,0,4,-2,-8,-47,-7,6
-2,-7,-35,-4,-5,9,0,-5
0,0,-13,-5,5,7,8,8
32,4,14,1,-9,-24,-2,4
-17,3,18,-1,0,16,-1,-10
4,-2,6,3,-9,-54,-5,15
-11,-4,11,2,3,34,-1,-6
-2,8,-8,-1,-15,-11,-3,2
5,-6,14,2,17,18,4,-7
-36,-4,-18,-1,16,46,4,-27
5,9,2,3,14,32,-3,30
18,-5,-11,-4,-12,-12,-2,-12
8,-1,1,-2,-10,-21,0,3
-2,0,26,-1,0,12,0,9
11,-3,0,2,-5,-35,-17,-17
-15,-4,-4,3,7,31,5,0
16,1,-18,-3,1,4,3,8
3,7,4,0,0,-1,1,-4
-8,-1,11,-4,-10,-4,-1,-5
7,0,2,1,-1,-28,1,8
-10,-4,-6,-4,-7,-3,-3,-11
17,-1,-12,-2,-1,13,1,-2
1,5,0,-8,-20,-46,2,-3
-28,2,8,6,31,82,12,3
-32,0,-2,-3,-14,-38,2,0
-12,-8,-6,4,15,28,2,4
8,-2,7,5,-9,0,-5,7
16,1,13,6,12,2,-7,9
7,4,-19,1,-2,-50,2,-1
24,-2,-7,-12,-23,-24,1,9
-22,-8,-11,1,37,77,1,-13
-12,1,11,-5,-20,-31,3,3
19,4,10,3,0,-16,-1,11
-5,-3,-7,0,-2,-1,-10,-23
6,2,1,3,-3,-10,-2,5
9,7,30,9,5,4,0,-2
25,-5,-32,-9,0,9,-6,-5
-51,6,26,-2,-14,-14,4,-5
-18,-13,-49,-8,4,-9,-2,-2
32,0,-11,-10,-8,3,3,-3
-2,4,18,6,3,1,2,3
2,6,19,5,6,-27,-3,3
-13,-1,23,4,-9,34,0,-8
10,-16,-42,-5,-14,-82,-5,4
-5,8,5,5,33,85,-4,-20
0,-8,-11,-2,-13,-4,2,-7
-13,1,0,-8,-19,-60,-4,-1
10,-2,2,-4,-15,-9,-4,0
2,-5,7,3,2,-6,2,5
8,-5,-14,5,10,18,-3,-3
2,8,6,4,9,38,13,15
1,8,10,-1,5,2,-3,-11
-11,-12,-21,-7,-10,-16,-6,-3
-27,2,17,1,2,3,-1,4
19,-8,-12,-2,-3,-9,-1,-4
-12,-7,-13,-7,0,16,0,-1
-1,0,6,1,-6,6,3,1
27,12,4,1,5,-10,2,4
5,-3,3,2,-2,-17,-7,-7
-24,-1,18,11,0,-41,0,-1
-9,0,11,0,-4,-22,-4,-5
13,-8,-36,-3,1,77,4,7
22,11,5,-2,23,21,3,1
1,3,-2,-10,-6,10,6,8
2,1,13,4,-9,-17,-2,-1
4,-1,16,3,-5,-31,-2,7
-2,-5,2,4,-3,-9,-1,1
3,-3,-9,-4,1,11,2,-5
-6,-1,1,-2,-10,2,-2,0
2,5,29,13,12,-5,1,-1
-10,-13,-50,-7,9,72,-3,-8
28,10,7,0,15,12,2,4
-34,0,6,-1,4,38,9,-9
62,4,-3,-1,-4,-25,-3,6
-20,-5,4,1,-10,-24,4,1
-1,7,5,6,7,8,-6,-7
14,-6,-12,-7,-4,-13,-1,2
1,-1,-4,-3,-5,-3,-2,-4
-3,1,12,1,3,-12,-1,0
-6,-8,-13,-7,-14,3,1,2
10,6,1,0,-10,-49,-3,2
-20,-6,-2,2,-10,5,1,10
-2,20,72,21,21,25,-18,-4
-3,-19,-73,-14,10,34,5,-2
14,19,2,-15,-19,-2,4,4
-31,-14,-19,-10,-17,-49,0,-9
14,-7,-15,-10,-19,-52,1,-3
2,9,43,14,7,12,-3,4
6,-6,-3,5,12,7,-5,3
7,-2,-12,-4,3,4,-1,-2
-4,5,9,0,-10,-11,7,2
-7,-3,7,2,1,-20,-11,-5
10,-7,-20,4,-1,-1,2,-9
-5,8,17,4,30,37,0,13
-14,-13,-22,-5,-20,-38,0,-14
21,25,36,2,6,31,0,6
-15,-22,-49,-9,-19,-29,-2,1
21,12,5,0,11,37,6,-6
-2,-2,-7,-4,1,-9,2,7
-4,-2,6,-1,-12,-21,-3,-4
11,7,28,10,11,7,-4,-3
-10,-4,-5,2,1,-22,-3,5
7,5,21,8,7,35,5,10
-6,-12,-25,-3,-16,-18,2,-6
19,8,-9,-3,41,95,1,14
-34,1,-13,-10,-19,-25,12,-9
-2,2,13,1,2,-9,1,-3
-12,4,20,13,7,-13,7,0
-9,-8,-6,2,-14,-10,-9,-3
3,-4,-8,-4,-1,-5,-4,-2
10,4,6,4,12,22,3,-1
-17,-13,-22,-6,-15,-10,-6,-3
-9,2,9,-6,-12,-34,2,6
22,-7,-14,3,11,33,-4,1
-33,1,-9,-6,-13,-17,-1,11
-14,2,5,2,17,5,3,-1
-4,-2,9,-5,-9,-8,6,-2
10,-3,-5,0,-9,-20,1,6
-5,-2,-7,1,8,31,-4,-9
-8,5,-3,-6,-5,9,5,2
3,3,20,6,6,-14,2,8
-29,-11,2,4,-7,-20,-6,-9
25,-4,-18,-7,-16,-1,-1,1
-10,1,15,5,-2,-29,-6,-4
-24,0,4,0,11,37,-5,-10
8,-15,-45,-13,-3,-1,-2,-6
4,11,12,-3,-15,-15,4,3
4,-3,-4,5,-4,-26,-1,0
29,10,-1,-4,-5,-6,0,12
-22,0,8,1,5,6,2,-1
0,-4,-4,-2,-6,-10,-2,-3
20,-1,13,3,5,7,-1,-1
-3,-3,-7,7,1,-16,1,5
7,5,14,-5,-2,15,2,1
5,1,19,7,-5,-31,-6,8
22,-1,-13,8,20,71,1,0
-23,-1,-31,-11,-9,-16,1,-6
-26,9,10,0,8,1,12,9
-6,-9,-30,-4,1,7,3,-2
2,-3,-1,-7,-15,-30,-1,7
4,-2,16,6,5,11,-2,-2
6,-1,14,2,-2,20,-5,-2
-1,-3,-8,0,3,-1,-4,-10
-3,-4,3,-5,-8,-18,-6,-2
0,-4,-7,0,-10,-31,0,6
14,6,11,6,10,18,6,0
-1,2,14,7,36,76,-1,-3
17,-10,-40,-4,6,12,-3,2
-32,-1,-5,-13,-18,-1,-1,-6
25,9,-5,6,-2,-30,6,4
-2,-5,-11,-8,-8,-17,6,-14
0,5,16,-2,-1,9,0,1
1,-2,9,9,11,7,2,-7
